Date,Open
1989-10-04 00:00:00-04:00,1.6182757064700126
1989-10-05 00:00:00-04:00,1.6490016279798565
1989-10-06 00:00:00-04:00,1.7002122972640523
1989-10-09 00:00:00-04:00,1.6694855690002441
1989-10-10 00:00:00-04:00,1.6797274689615507
1989-10-11 00:00:00-04:00,1.6387592339367598
1989-10-12 00:00:00-04:00,1.6490007469683516
1989-10-13 00:00:00-04:00,1.6592435251991704
1989-10-16 00:00:00-04:00,1.5568208754817143
1989-10-17 00:00:00-04:00,1.5977912038564681
1989-10-18 00:00:00-04:00,1.638758840736436
1989-10-19 00:00:00-04:00,1.6592433262456414
1989-10-20 00:00:00-04:00,1.6592429876327515
1989-10-23 00:00:00-04:00,1.6694855690002441
1989-10-24 00:00:00-04:00,1.669485668583614
1989-10-25 00:00:00-04:00,1.6694855690002441
1989-10-26 00:00:00-04:00,1.6694855690002441
1989-10-27 00:00:00-04:00,1.6694859695730742
1989-10-30 00:00:00-05:00,1.6490024603903293
1989-10-31 00:00:00-05:00,1.6387602090835571
1989-11-01 00:00:00-05:00,1.6490011818525268
1989-11-02 00:00:00-05:00,1.700212536478889
1989-11-03 00:00:00-05:00,1.720697250366211
1989-11-06 00:00:00-05:00,1.7821508277546276
1989-11-07 00:00:00-05:00,1.66948529384857
1989-11-08 00:00:00-05:00,1.7616649578357566
1989-11-09 00:00:00-05:00,1.782149945580682
1989-11-10 00:00:00-05:00,1.7616658588735068
1989-11-13 00:00:00-05:00,1.6797278117548469
1989-11-14 00:00:00-05:00,1.6899697096259505
1989-11-15 00:00:00-05:00,1.669485668583614
1989-11-16 00:00:00-05:00,1.6694857470960502
1989-11-17 00:00:00-05:00,1.700212536478889
1989-11-20 00:00:00-05:00,1.7411807054531074
1989-11-21 00:00:00-05:00,1.7002127282103598
1989-11-22 00:00:00-05:00,1.7616655122150073
1989-11-24 00:00:00-05:00,1.8231186624516778
1989-11-27 00:00:00-05:00,1.9050575922364772
1989-11-28 00:00:00-05:00,1.884571955348905
1989-11-29 00:00:00-05:00,1.8436033898891684
1989-11-30 00:00:00-05:00,1.8436034047925793
1989-12-01 00:00:00-05:00,1.8948142374715498
1989-12-04 00:00:00-05:00,1.9255409964716248
1989-12-05 00:00:00-05:00,1.935783193957421
1989-12-06 00:00:00-05:00,1.9050565177857564
1989-12-07 00:00:00-05:00,1.956268107449567
1989-12-08 00:00:00-05:00,1.9152991418485288
1989-12-11 00:00:00-05:00,1.9460256956517696
1989-12-12 00:00:00-05:00,1.976752519607544
1989-12-13 00:00:00-05:00,1.9665105838586787
1989-12-14 00:00:00-05:00,2.0484490394592285
1989-12-15 00:00:00-05:00,2.0586908247003604
1989-12-18 00:00:00-05:00,2.0177208609187725
1989-12-19 00:00:00-05:00,1.9869944733016345
1989-12-20 00:00:00-05:00,2.0074796482996287
1989-12-21 00:00:00-05:00,2.0382063388824463
1989-12-22 00:00:00-05:00,2.0484490394592285
1989-12-26 00:00:00-05:00,2.0382063776103374
1989-12-27 00:00:00-05:00,2.0074786230460884
1989-12-28 00:00:00-05:00,1.9972363851734043
1989-12-29 00:00:00-05:00,1.9869950691072067
1990-01-02 00:00:00-05:00,2.0484498830942006
1990-01-03 00:00:00-05:00,2.0074786230460884
1990-01-04 00:00:00-05:00,1.9869948316503454
1990-01-05 00:00:00-05:00,1.9255409548359532
1990-01-08 00:00:00-05:00,1.8845726440513069
1990-01-09 00:00:00-05:00,1.85384681224823
1990-01-10 00:00:00-05:00,1.816915297094797
1990-01-11 00:00:00-05:00,1.7861203998327255
1990-01-12 00:00:00-05:00,1.7861193418502808
1990-01-15 00:00:00-05:00,1.7963843955390755
1990-01-16 00:00:00-05:00,1.765590006216413
1990-01-17 00:00:00-05:00,1.7861193418502808
1990-01-18 00:00:00-05:00,1.765590006216413
1990-01-19 00:00:00-05:00,1.7963854596018791
1990-01-22 00:00:00-05:00,1.7963857650756836
1990-01-23 00:00:00-05:00,1.8169155791401863
1990-01-24 00:00:00-05:00,1.7963836705961893
1990-01-25 00:00:00-05:00,1.7655892344726913
1990-01-26 00:00:00-05:00,1.7758543526220045
1990-01-29 00:00:00-05:00,1.765589666084425
1990-01-30 00:00:00-05:00,1.7245300853953642
1990-01-31 00:00:00-05:00,1.7655891668601114
1990-02-01 00:00:00-05:00,1.8887698064084912
1990-02-02 00:00:00-05:00,1.888771176338196
1990-02-05 00:00:00-05:00,1.909301297820133
1990-02-06 00:00:00-05:00,1.8887699230297192
1990-02-07 00:00:00-05:00,1.909300203019
1990-02-08 00:00:00-05:00,1.9503610439789603
1990-02-09 00:00:00-05:00,2.022214572876692
1990-02-12 00:00:00-05:00,1.97088869156376
1990-02-13 00:00:00-05:00,1.929829302288237
1990-02-14 00:00:00-05:00,1.9400953675838226
1990-02-15 00:00:00-05:00,1.9400943517684934
1990-02-16 00:00:00-05:00,1.9503601789474487
1990-02-20 00:00:00-05:00,1.9606244507290067
1990-02-21 00:00:00-05:00,1.9400935557580763
1990-02-22 00:00:00-05:00,1.9093005840594954
1990-02-23 00:00:00-05:00,1.8271795566054596
1990-02-26 00:00:00-05:00,1.7963854596018791
1990-02-27 00:00:00-05:00,1.8169150719275842
1990-02-28 00:00:00-05:00,1.8477095971560344
1990-03-01 00:00:00-05:00,1.8374456986784935
1990-03-02 00:00:00-05:00,1.8066502389191201
1990-03-05 00:00:00-05:00,1.7553242444992068
1990-03-06 00:00:00-05:00,1.7553255190168109
1990-03-07 00:00:00-05:00,1.7963854596018791
1990-03-08 00:00:00-05:00,1.8066493259387069
1990-03-09 00:00:00-05:00,1.8066508265904018
1990-03-12 00:00:00-05:00,1.7758535715036614
1990-03-13 00:00:00-05:00,1.7553234724111335
1990-03-14 00:00:00-05:00,1.7553237737235377
1990-03-15 00:00:00-05:00,1.8271795566054596
1990-03-16 00:00:00-05:00,1.8066493259387069
1990-03-19 00:00:00-05:00,1.8066490302651614
1990-03-20 00:00:00-05:00,1.8066493838859004
1990-03-21 00:00:00-05:00,1.837444543838501
1990-03-22 00:00:00-05:00,1.8066490302651614
1990-03-23 00:00:00-05:00,1.837444543838501
1990-03-26 00:00:00-05:00,1.82718063890934
1990-03-27 00:00:00-05:00,1.7963854596018791
1990-03-28 00:00:00-05:00,1.8682392319255972
1990-03-29 00:00:00-05:00,1.9195634652209537
1990-03-30 00:00:00-05:00,1.9195644855499268
1990-04-02 00:00:00-04:00,1.9195663585611014
1990-04-03 00:00:00-04:00,1.888770028558701
1990-04-04 00:00:00-04:00,1.9606236462951987
1990-04-05 00:00:00-04:00,1.929828510489515
1990-04-06 00:00:00-04:00,1.919564908809876
1990-04-09 00:00:00-04:00,1.8004311323165894
1990-04-10 00:00:00-04:00,1.8107178898180947
1990-04-11 00:00:00-04:00,1.8312956660134452
1990-04-12 00:00:00-04:00,1.7901416506086076
1990-04-16 00:00:00-04:00,1.7387024122855566
1990-04-17 00:00:00-04:00,1.790141463279724
1990-04-18 00:00:00-04:00,1.7695651246213364
1990-04-19 00:00:00-04:00,1.7901410820872286
1990-04-20 00:00:00-04:00,1.7592775821685789
1990-04-23 00:00:00-04:00,1.7489889689854212
1990-04-24 00:00:00-04:00,1.728412628173828
1990-04-25 00:00:00-04:00,1.7489906549453735
1990-04-26 00:00:00-04:00,1.7284120792566344
1990-04-27 00:00:00-04:00,1.7695669521486137
1990-04-30 00:00:00-04:00,1.7798532939505303
1990-05-01 00:00:00-04:00,1.7901426712671915
1990-05-02 00:00:00-04:00,1.8312953763537936
1990-05-03 00:00:00-04:00,1.8724476645664616
1990-05-04 00:00:00-04:00,1.872447588470545
1990-05-07 00:00:00-04:00,1.8312958478927612
1990-05-08 00:00:00-04:00,1.8724476645664616
1990-05-09 00:00:00-04:00,1.8724481393505077
1990-05-10 00:00:00-04:00,1.8518717861708318
1990-05-11 00:00:00-04:00,1.8621600328580192
1990-05-14 00:00:00-04:00,1.903312975032763
1990-05-15 00:00:00-04:00,1.8312953763537936
1990-05-16 00:00:00-04:00,1.8518703599129953
1990-05-17 00:00:00-04:00,1.92388821972741
1990-05-18 00:00:00-04:00,1.954752579331398
1990-05-21 00:00:00-04:00,1.9547527366214328
1990-05-22 00:00:00-04:00,1.96504169451563
1990-05-23 00:00:00-04:00,1.9547520465748283
1990-05-24 00:00:00-04:00,1.9238889627986484
1990-05-25 00:00:00-04:00,1.8518718558809033
1990-05-29 00:00:00-04:00,1.9033112032439117
1990-05-30 00:00:00-04:00,1.9341771652824
1990-05-31 00:00:00-04:00,1.9341771652824
1990-06-01 00:00:00-04:00,1.9547535181045532
1990-06-04 00:00:00-04:00,1.9341768744104195
1990-06-05 00:00:00-04:00,1.9650410046448576
1990-06-06 00:00:00-04:00,1.9033127407664838
1990-06-07 00:00:00-04:00,1.9033131605940439
1990-06-08 00:00:00-04:00,1.8930249214172363
1990-06-11 00:00:00-04:00,1.8827363868122515
1990-06-12 00:00:00-04:00,1.913600524682649
1990-06-13 00:00:00-04:00,1.9547535181045532
1990-06-14 00:00:00-04:00,1.9444650492743047
1990-06-15 00:00:00-04:00,1.96504169451563
1990-06-18 00:00:00-04:00,1.9547535181045532
1990-06-19 00:00:00-04:00,1.9341762588623375
1990-06-20 00:00:00-04:00,1.944464977117295
1990-06-21 00:00:00-04:00,1.9238886281530907
1990-06-22 00:00:00-04:00,1.9341763920254176
1990-06-25 00:00:00-04:00,1.9238880872726443
1990-06-26 00:00:00-04:00,1.9135999156829508
1990-06-27 00:00:00-04:00,1.9238880872726443
1990-06-28 00:00:00-04:00,1.9341771652824
1990-06-29 00:00:00-04:00,1.96504169451563
1990-07-02 00:00:00-04:00,1.944463877908645
1990-07-03 00:00:00-04:00,1.9341772716978323
1990-07-05 00:00:00-04:00,1.8724476645664616
1990-07-06 00:00:00-04:00,1.831295432991156
1990-07-09 00:00:00-04:00,1.84158306778147
1990-07-10 00:00:00-04:00,1.8354190587997439
1990-07-11 00:00:00-04:00,1.8354195549501386
1990-07-12 00:00:00-04:00,1.8457311106764753
1990-07-13 00:00:00-04:00,1.9179107628370584
1990-07-16 00:00:00-04:00,1.9694675037735385
1990-07-17 00:00:00-04:00,1.9591545293675385
1990-07-18 00:00:00-04:00,1.9282228291689696
1990-07-19 00:00:00-04:00,1.8560424576634946
1990-07-20 00:00:00-04:00,1.9075998067855835
1990-07-23 00:00:00-04:00,1.8972877999569506
1990-07-24 00:00:00-04:00,1.917910198890726
1990-07-25 00:00:00-04:00,1.9900899117754904
1990-07-26 00:00:00-04:00,2.0210230350494385
1990-07-27 00:00:00-04:00,2.0004009601333377
1990-07-30 00:00:00-04:00,1.9797778129577637
1990-07-31 00:00:00-04:00,1.9488437846302986
1990-08-01 00:00:00-04:00,2.000401479592595
1990-08-02 00:00:00-04:00,2.062269267190266
1990-08-03 00:00:00-04:00,2.0828910571772874
1990-08-06 00:00:00-04:00,2.1447587394714356
1990-08-07 00:00:00-04:00,2.062270890420942
1990-08-08 00:00:00-04:00,2.062268208975744
1990-08-09 00:00:00-04:00,2.0416455268859863
1990-08-10 00:00:00-04:00,2.0416455268859863
1990-08-13 00:00:00-04:00,2.051956843603686
1990-08-14 00:00:00-04:00,2.0519570610961138
1990-08-15 00:00:00-04:00,2.0210226583480835
1990-08-16 00:00:00-04:00,2.051957607269287
1990-08-17 00:00:00-04:00,2.072582244873047
1990-08-20 00:00:00-04:00,2.082892792041485
1990-08-21 00:00:00-04:00,2.021022820835791
1990-08-22 00:00:00-04:00,2.021024175258498
1990-08-23 00:00:00-04:00,1.9797788519608346
1990-08-24 00:00:00-04:00,1.9282210990786552
1990-08-27 00:00:00-04:00,1.979778350345672
1990-08-28 00:00:00-04:00,1.9488442343567054
1990-08-29 00:00:00-04:00,1.9900899206070188
1990-08-30 00:00:00-04:00,1.9488442343567054
1990-08-31 00:00:00-04:00,1.9488431897392884
1990-09-04 00:00:00-04:00,1.938532968046804
1990-09-05 00:00:00-04:00,1.9488444574948014
1990-09-06 00:00:00-04:00,2.1138263765669545
1990-09-07 00:00:00-04:00,2.175693830223971
1990-09-10 00:00:00-04:00,2.196316520557847
1990-09-11 00:00:00-04:00,2.2272495233787684
1990-09-12 00:00:00-04:00,2.2066268426067426
1990-09-13 00:00:00-04:00,2.186005032979525
1990-09-14 00:00:00-04:00,2.144760518579439
1990-09-17 00:00:00-04:00,2.23756180475424
1990-09-18 00:00:00-04:00,2.2891196798770985
1990-09-19 00:00:00-04:00,2.433478803716154
1990-09-20 00:00:00-04:00,2.412855243260881
1990-09-21 00:00:00-04:00,2.299429992834727
1990-09-24 00:00:00-04:00,2.350985450744629
1990-09-25 00:00:00-04:00,2.3097400919596356
1990-09-26 00:00:00-04:00,2.3200525625331982
1990-09-27 00:00:00-04:00,2.268497656892847
1990-09-28 00:00:00-04:00,2.2272505359114887
1990-10-01 00:00:00-04:00,2.1963165006904957
1990-10-02 00:00:00-04:00,2.2169392108917236
1990-10-03 00:00:00-04:00,2.20662784576416
1990-10-04 00:00:00-04:00,2.2066277219698978
1990-10-05 00:00:00-04:00,2.1344482267604152
1990-10-08 00:00:00-04:00,2.1138255385791553
1990-10-09 00:00:00-04:00,2.1179790418838786
1990-10-10 00:00:00-04:00,2.2109637951505356
1990-10-11 00:00:00-04:00,2.148974372345267
1990-10-12 00:00:00-04:00,2.1076481563288993
1990-10-15 00:00:00-04:00,2.117977036107885
1990-10-16 00:00:00-04:00,2.0766515108808203
1990-10-17 00:00:00-04:00,2.0559888172149656
1990-10-18 00:00:00-04:00,2.055988311767578
1990-10-19 00:00:00-04:00,2.0559894785736543
1990-10-22 00:00:00-04:00,2.055988458954558
1990-10-23 00:00:00-04:00,2.0249935130977152
1990-10-24 00:00:00-04:00,2.0663190596174488
1990-10-25 00:00:00-04:00,2.1076480972934775
1990-10-26 00:00:00-04:00,2.190299832543661
1990-10-29 00:00:00-05:00,2.231626244478447
1990-10-30 00:00:00-05:00,2.2109641350841067
1990-10-31 00:00:00-05:00,2.1903000937567816
1990-11-01 00:00:00-05:00,2.231626510620117
1990-11-02 00:00:00-05:00,2.231626714978899
1990-11-05 00:00:00-05:00,2.3349419864448344
1990-11-06 00:00:00-05:00,2.303947092735604
1990-11-07 00:00:00-05:00,2.262621323267619
1990-11-08 00:00:00-05:00,2.2109630931906983
1990-11-09 00:00:00-05:00,2.2316258835465943
1990-11-12 00:00:00-05:00,2.2419590054543366
1990-11-13 00:00:00-05:00,2.0869831104374414
1990-11-14 00:00:00-05:00,2.066320531508502
1990-11-15 00:00:00-05:00,2.086983652257208
1990-11-16 00:00:00-05:00,2.076650654915536
1990-11-19 00:00:00-05:00,2.0869843597811553
1990-11-20 00:00:00-05:00,1.9630036570809106
1990-11-21 00:00:00-05:00,1.921679226975692
1990-11-23 00:00:00-05:00,1.9630056619644165
1990-11-26 00:00:00-05:00,1.9733372707115975
1990-11-27 00:00:00-05:00,1.9733364052242703
1990-11-28 00:00:00-05:00,1.9526720588857478
1990-11-29 00:00:00-05:00,1.9216784238815308
1990-11-30 00:00:00-05:00,1.9010165161556667
1990-12-03 00:00:00-05:00,1.8493572893467816
1990-12-04 00:00:00-05:00,1.8080310574893295
1990-12-05 00:00:00-05:00,1.7976989652333635
1990-12-06 00:00:00-05:00,1.839025684378364
1990-12-07 00:00:00-05:00,1.7976994514465332
1990-12-10 00:00:00-05:00,1.8080310574893295
1990-12-11 00:00:00-05:00,1.787367869785854
1990-12-12 00:00:00-05:00,1.8183621717302987
1990-12-13 00:00:00-05:00,1.8183626635321255
1990-12-14 00:00:00-05:00,1.7976989652333635
1990-12-17 00:00:00-05:00,1.8493575068882535
1990-12-18 00:00:00-05:00,1.8286949761341074
1990-12-19 00:00:00-05:00,1.7873672310417221
1990-12-20 00:00:00-05:00,1.7253778366053976
1990-12-21 00:00:00-05:00,1.6427260838449003
1990-12-24 00:00:00-05:00,1.6530574026283311
1990-12-26 00:00:00-05:00,1.694383214820515
1990-12-27 00:00:00-05:00,1.8183626883370536
1990-12-28 00:00:00-05:00,1.7976989844266105
1990-12-31 00:00:00-05:00,1.7563725709915161
1991-01-02 00:00:00-05:00,1.7357097361461225
1991-01-03 00:00:00-05:00,1.7150470880592394
1991-01-04 00:00:00-05:00,1.611730521157284
1991-01-07 00:00:00-05:00,1.5187456048768142
1991-01-08 00:00:00-05:00,1.4877512144005818
1991-01-09 00:00:00-05:00,1.4402674932549469
1991-01-10 00:00:00-05:00,1.4091825833285812
1991-01-11 00:00:00-05:00,1.3988207721374404
1991-01-14 00:00:00-05:00,1.4817136898636818
1991-01-15 00:00:00-05:00,1.492075046459278
1991-01-16 00:00:00-05:00,1.4817139392203473
1991-01-17 00:00:00-05:00,1.4506290314045358
1991-01-18 00:00:00-05:00,1.460991231884275
1991-01-21 00:00:00-05:00,1.4299059422577127
1991-01-22 00:00:00-05:00,1.4299059422577127
1991-01-23 00:00:00-05:00,1.4195438846945763
1991-01-24 00:00:00-05:00,1.533522661418131
1991-01-25 00:00:00-05:00,1.5335218608379364
1991-01-28 00:00:00-05:00,1.5127983109934349
1991-01-29 00:00:00-05:00,1.4920753240585327
1991-01-30 00:00:00-05:00,1.4713517819251214
1991-01-31 00:00:00-05:00,1.471352474294978
1991-02-01 00:00:00-05:00,1.429905678184939
1991-02-04 00:00:00-05:00,1.4713520556688309
1991-02-05 00:00:00-05:00,1.4920761030014247
1991-02-06 00:00:00-05:00,1.512799652867347
1991-02-07 00:00:00-05:00,1.688947023347367
1991-02-08 00:00:00-05:00,1.7614789315831592
1991-02-11 00:00:00-05:00,1.7822025111644944
1991-02-12 00:00:00-05:00,1.8132874764591813
1991-02-13 00:00:00-05:00,1.740755941137413
1991-02-14 00:00:00-05:00,1.782201758082609
1991-02-15 00:00:00-05:00,1.6475008797502804
1991-02-19 00:00:00-05:00,1.7200322399841497
1991-02-20 00:00:00-05:00,1.6889471255597612
1991-02-21 00:00:00-05:00,1.7303943346781903
1991-02-22 00:00:00-05:00,1.7200321665235385
1991-02-25 00:00:00-05:00,1.6267773929058305
1991-02-26 00:00:00-05:00,1.5335229635238647
1991-02-27 00:00:00-05:00,1.554245902941777
1991-02-28 00:00:00-05:00,1.6371395501745751
1991-03-01 00:00:00-05:00,1.7200322399841497
1991-03-04 00:00:00-05:00,1.6889477637876946
1991-03-05 00:00:00-05:00,1.699307363683527
1991-03-06 00:00:00-05:00,1.6889475882053375
1991-03-07 00:00:00-05:00,1.6993087643668763
1991-03-08 00:00:00-05:00,1.740755650035122
1991-03-11 00:00:00-05:00,1.7822020684165516
1991-03-12 00:00:00-05:00,1.8236483196879543
1991-03-13 00:00:00-05:00,1.771840905568686
1991-03-14 00:00:00-05:00,1.7096708714962006
1991-03-15 00:00:00-05:00,1.6889471255597612
1991-03-18 00:00:00-05:00,1.751116852427638
1991-03-19 00:00:00-05:00,1.761478597209567
1991-03-20 00:00:00-05:00,1.7407555019154268
1991-03-21 00:00:00-05:00,1.77184022630964
1991-03-22 00:00:00-05:00,1.8132874386848052
1991-03-25 00:00:00-05:00,1.802925796178035
1991-03-26 00:00:00-05:00,1.7718404215924881
1991-03-27 00:00:00-05:00,1.751115515015342
1991-03-28 00:00:00-05:00,1.7096702911838981
1991-04-01 00:00:00-05:00,1.6785856082940558
1991-04-02 00:00:00-05:00,1.6371397517229382
1991-04-03 00:00:00-05:00,1.5646078884601593
1991-04-04 00:00:00-05:00,1.5542452598547005
1991-04-05 00:00:00-05:00,1.6060544259893068
1991-04-08 00:00:00-04:00,1.6371390177653384
1991-04-09 00:00:00-04:00,1.5956924603535578
1991-04-10 00:00:00-04:00,1.6101835288253483
1991-04-11 00:00:00-04:00,1.5997943878173828
1991-04-12 00:00:00-04:00,1.5997952388811714
1991-04-15 00:00:00-04:00,1.6621237444731354
1991-04-16 00:00:00-04:00,1.6829010077885218
1991-04-17 00:00:00-04:00,1.755617557149945
1991-04-18 00:00:00-04:00,1.7348423969177973
1991-04-19 00:00:00-04:00,1.7348410180120757
1991-04-22 00:00:00-04:00,1.7140661515295506
1991-04-23 00:00:00-04:00,1.6517364732921125
1991-04-24 00:00:00-04:00,1.662124752998352
1991-04-25 00:00:00-04:00,1.6517366427409497
1991-04-26 00:00:00-04:00,1.6309595329639237
1991-04-29 00:00:00-04:00,1.6101828694343565
1991-04-30 00:00:00-04:00,1.5790183544158936
1991-05-01 00:00:00-04:00,1.5790178175895444
1991-05-02 00:00:00-04:00,1.5997949117108394
1991-05-03 00:00:00-04:00,1.599795247994217
1991-05-06 00:00:00-04:00,1.579017658107328
1991-05-07 00:00:00-04:00,1.579018039703369
1991-05-08 00:00:00-04:00,1.558241592003749
1991-05-09 00:00:00-04:00,1.6309600811970384
1991-05-10 00:00:00-04:00,1.6309597476532585
1991-05-13 00:00:00-04:00,1.5686300984800678
1991-05-14 00:00:00-04:00,1.5166886577735077
1991-05-15 00:00:00-04:00,1.5374655630074294
1991-05-16 00:00:00-04:00,1.630959193168148
1991-05-17 00:00:00-04:00,1.6101826630629503
1991-05-20 00:00:00-04:00,1.5997943878173828
1991-05-21 00:00:00-04:00,1.6205714690057855
1991-05-22 00:00:00-04:00,1.5790186863319546
1991-05-23 00:00:00-04:00,1.5997943878173828
1991-05-24 00:00:00-04:00,1.6101835288253483
1991-05-28 00:00:00-04:00,1.579018146563799
1991-05-29 00:00:00-04:00,1.6205712556838987
1991-05-30 00:00:00-04:00,1.6205716341733933
1991-05-31 00:00:00-04:00,1.6829010077885218
1991-06-03 00:00:00-04:00,1.7660072303953624
1991-06-04 00:00:00-04:00,1.7660072303953624
1991-06-05 00:00:00-04:00,1.7452292875810103
1991-06-06 00:00:00-04:00,1.7036779616252486
1991-06-07 00:00:00-04:00,1.7244537700841458
1991-06-10 00:00:00-04:00,1.6932889429139504
1991-06-11 00:00:00-04:00,1.6829013124108314
1991-06-12 00:00:00-04:00,1.662124752998352
1991-06-13 00:00:00-04:00,1.6621244178628023
1991-06-14 00:00:00-04:00,1.6413483619689941
1991-06-17 00:00:00-04:00,1.641347548004928
1991-06-18 00:00:00-04:00,1.6413483619689941
1991-06-19 00:00:00-04:00,1.6413481935858727
1991-06-20 00:00:00-04:00,1.6205714690057855
1991-06-21 00:00:00-04:00,1.5582414865493772
1991-06-24 00:00:00-04:00,1.5686300757684206
1991-06-25 00:00:00-04:00,1.579017658107328
1991-06-26 00:00:00-04:00,1.5478534932072099
1991-06-27 00:00:00-04:00,1.537465214729309
1991-06-28 00:00:00-04:00,1.5374644531144037
1991-07-01 00:00:00-04:00,1.4959115373327376
1991-07-02 00:00:00-04:00,1.4751341209545001
1991-07-03 00:00:00-04:00,1.4647465397914252
1991-07-05 00:00:00-04:00,1.4959113597869873
1991-07-08 00:00:00-04:00,1.495911539817343
1991-07-09 00:00:00-04:00,1.5208259714060817
1991-07-10 00:00:00-04:00,1.4999921171815245
1991-07-11 00:00:00-04:00,1.4999938140044342
1991-07-12 00:00:00-04:00,1.5624929447563327
1991-07-15 00:00:00-04:00,1.5520764777534886
1991-07-16 00:00:00-04:00,1.5729096212694722
1991-07-17 00:00:00-04:00,1.6354096388242332
1991-07-18 00:00:00-04:00,1.7499920359829015
1991-07-19 00:00:00-04:00,1.7812417490141732
1991-07-22 00:00:00-04:00,1.7499924797609627
1991-07-23 00:00:00-04:00,1.7395748875357888
1991-07-24 00:00:00-04:00,1.7187416553497314
1991-07-25 00:00:00-04:00,1.708325982093811
1991-07-26 00:00:00-04:00,1.7083259921476066
1991-07-29 00:00:00-04:00,1.7395752668380737
1991-07-30 00:00:00-04:00,1.7291586569377353
1991-07-31 00:00:00-04:00,1.7083258511107644
1991-08-01 00:00:00-04:00,1.6874927384097402
1991-08-02 00:00:00-04:00,1.6979087591171265
1991-08-05 00:00:00-04:00,1.708325982093811
1991-08-06 00:00:00-04:00,1.7083259921476066
1991-08-07 00:00:00-04:00,1.7291586569377353
1991-08-08 00:00:00-04:00,1.7604082822799683
1991-08-09 00:00:00-04:00,1.7499924996319938
1991-08-12 00:00:00-04:00,1.7916589877184699
1991-08-13 00:00:00-04:00,1.7604081942591556
1991-08-14 00:00:00-04:00,1.7812425101345237
1991-08-15 00:00:00-04:00,1.8333256244659424
1991-08-16 00:00:00-04:00,1.8229089892668533
1991-08-19 00:00:00-04:00,1.7812417402952732
1991-08-20 00:00:00-04:00,1.739575275353023
1991-08-21 00:00:00-04:00,1.7499918937683103
1991-08-22 00:00:00-04:00,1.7604091016643018
1991-08-23 00:00:00-04:00,1.7291593958031048
1991-08-26 00:00:00-04:00,1.8333256244659424
1991-08-27 00:00:00-04:00,1.8333257569207084
1991-08-28 00:00:00-04:00,1.8958247164462474
1991-08-29 00:00:00-04:00,1.9479082923717599
1991-08-30 00:00:00-04:00,1.97915693655371
1991-09-03 00:00:00-04:00,1.9270758581965157
1991-09-04 00:00:00-04:00,1.843741536140442
1991-09-05 00:00:00-04:00,1.8645756277773116
1991-09-06 00:00:00-04:00,1.8749915433852051
1991-09-09 00:00:00-04:00,1.8749917863489507
1991-09-10 00:00:00-04:00,1.8854084073842226
1991-09-11 00:00:00-04:00,1.8854084073842226
1991-09-12 00:00:00-04:00,1.9062416494547665
1991-09-13 00:00:00-04:00,1.9166582704900383
1991-09-16 00:00:00-04:00,1.9062416494547665
1991-09-17 00:00:00-04:00,1.895823755779782
1991-09-18 00:00:00-04:00,1.9374911937307804
1991-09-19 00:00:00-04:00,1.968740863898366
1991-09-20 00:00:00-04:00,2.0520738105184027
1991-09-23 00:00:00-04:00,2.0416586323788293
1991-09-24 00:00:00-04:00,1.9791589936484462
1991-09-25 00:00:00-04:00,1.9270758622366448
1991-09-26 00:00:00-04:00,1.937491670487419
1991-09-27 00:00:00-04:00,1.979158878326416
1991-09-30 00:00:00-04:00,1.9687401305942636
1991-10-01 00:00:00-04:00,1.9895742506277365
1991-10-02 00:00:00-04:00,1.8958238850357712
1991-10-03 00:00:00-04:00,1.9374902119507662
1991-10-04 00:00:00-04:00,1.916656983865274
1991-10-07 00:00:00-04:00,1.9166579550885139
1991-10-08 00:00:00-04:00,1.962499976158142
1991-10-09 00:00:00-04:00,1.9624991929659281
1991-10-10 00:00:00-04:00,1.9416215419769287
1991-10-11 00:00:00-04:00,1.9520604610443115
1991-10-14 00:00:00-04:00,1.9625005069531891
1991-10-15 00:00:00-04:00,1.9938167895677794
1991-10-16 00:00:00-04:00,2.0355710573494434
1991-10-17 00:00:00-04:00,2.0042554717702963
1991-10-18 00:00:00-04:00,2.0355710573494434
1991-10-21 00:00:00-04:00,1.9938164949417114
1991-10-22 00:00:00-04:00,1.9729406425486442
1991-10-23 00:00:00-04:00,1.97293670499647
1991-10-24 00:00:00-04:00,1.9207458024496562
1991-10-25 00:00:00-04:00,1.8789895510269425
1991-10-28 00:00:00-05:00,1.8372351153866275
1991-10-29 00:00:00-05:00,1.9103060435440582
1991-10-30 00:00:00-05:00,1.8581109979299193
1991-10-31 00:00:00-05:00,1.8789904589181419
1991-11-01 00:00:00-05:00,1.9103058278560638
1991-11-04 00:00:00-05:00,1.9520613188596114
1991-11-05 00:00:00-05:00,2.035572163423701
1991-11-06 00:00:00-05:00,2.098204947009529
1991-11-07 00:00:00-05:00,2.0355719635167073
1991-11-08 00:00:00-05:00,2.0146933027676175
1991-11-11 00:00:00-05:00,2.0460107940988443
1991-11-12 00:00:00-05:00,2.0042554717702963
1991-11-13 00:00:00-05:00,2.0251320290565493
1991-11-14 00:00:00-05:00,2.087766116427392
1991-11-15 00:00:00-05:00,2.0146941244602203
1991-11-18 00:00:00-05:00,1.9625018031700798
1991-11-19 00:00:00-05:00,1.9311831196149192
1991-11-20 00:00:00-05:00,1.8685511685489269
1991-11-21 00:00:00-05:00,1.8581109979299193
1991-11-22 00:00:00-05:00,1.8581120412458072
1991-11-25 00:00:00-05:00,1.8372342276707883
1991-11-26 00:00:00-05:00,1.8372335206894645
1991-11-27 00:00:00-05:00,1.76416173293477
1991-11-29 00:00:00-05:00,1.7641623903723325
1991-12-02 00:00:00-05:00,1.7746012253933643
1991-12-03 00:00:00-05:00,1.7328458982355455
1991-12-04 00:00:00-05:00,1.7746005597568693
1991-12-05 00:00:00-05:00,1.7537231163160336
1991-12-06 00:00:00-05:00,1.7641619443893433
1991-12-09 00:00:00-05:00,1.753723563918148
1991-12-10 00:00:00-05:00,1.7119679421186447
1991-12-11 00:00:00-05:00,1.6806514870169704
1991-12-12 00:00:00-05:00,1.6806517530370642
1991-12-13 00:00:00-05:00,1.6910902842879294
1991-12-16 00:00:00-05:00,1.670212716049289
1991-12-17 00:00:00-05:00,1.6806517530370642
1991-12-18 00:00:00-05:00,1.7015287341493548
1991-12-19 00:00:00-05:00,1.7119679743526905
1991-12-20 00:00:00-05:00,1.6910903749999053
1991-12-23 00:00:00-05:00,1.6702131455944431
1991-12-24 00:00:00-05:00,1.6180185686727488
1991-12-26 00:00:00-05:00,1.6702126264572144
1991-12-27 00:00:00-05:00,1.6702134096169774
1991-12-30 00:00:00-05:00,1.6493353278209002
1991-12-31 00:00:00-05:00,1.6284576654434206
1992-01-02 00:00:00-05:00,1.618019050242854
1992-01-03 00:00:00-05:00,1.5971415380114002
1992-01-06 00:00:00-05:00,1.5971410298507485
1992-01-07 00:00:00-05:00,1.5449463712037914
1992-01-08 00:00:00-05:00,1.4196805953979492
1992-01-09 00:00:00-05:00,1.4196807463392078
1992-01-10 00:00:00-05:00,1.4405579466919798
1992-01-13 00:00:00-05:00,1.4927527863963121
1992-01-14 00:00:00-05:00,1.5345072813437017
1992-01-15 00:00:00-05:00,1.4927522327801954
1992-01-16 00:00:00-05:00,1.5240692180275115
1992-01-17 00:00:00-05:00,1.5762636561547556
1992-01-20 00:00:00-05:00,1.6180185686727488
1992-01-21 00:00:00-05:00,1.6910903749999053
1992-01-22 00:00:00-05:00,1.680651364086559
1992-01-23 00:00:00-05:00,1.6493346964477733
1992-01-24 00:00:00-05:00,1.6388970154362756
1992-01-27 00:00:00-05:00,1.5345076881606003
1992-01-28 00:00:00-05:00,1.5136305476937977
1992-01-29 00:00:00-05:00,1.4718750715255737
1992-01-30 00:00:00-05:00,1.4301198967865536
1992-01-31 00:00:00-05:00,1.4718745152155557
1992-02-03 00:00:00-05:00,1.5136297265966454
1992-02-04 00:00:00-05:00,1.4823139018200815
1992-02-05 00:00:00-05:00,1.471874891425208
1992-02-06 00:00:00-05:00,1.4614355919966056
1992-02-07 00:00:00-05:00,1.3883637307395398
1992-02-10 00:00:00-05:00,1.4927527272461243
1992-02-11 00:00:00-05:00,1.5553863394904783
1992-02-12 00:00:00-05:00,1.5449475049972536
1992-02-13 00:00:00-05:00,1.5449469397668125
1992-02-14 00:00:00-05:00,1.534508048287974
1992-02-18 00:00:00-05:00,1.5449469397668125
1992-02-19 00:00:00-05:00,1.524068860349984
1992-02-20 00:00:00-05:00,1.5136304477445122
1992-02-21 00:00:00-05:00,1.534508670504029
1992-02-24 00:00:00-05:00,1.5553863394904783
1992-02-25 00:00:00-05:00,1.5449463667934888
1992-02-26 00:00:00-05:00,1.5136300325393677
1992-02-27 00:00:00-05:00,1.5031912047287515
1992-02-28 00:00:00-05:00,1.4927520751953123
1992-03-02 00:00:00-05:00,1.5031909942626953
1992-03-03 00:00:00-05:00,1.5136298206117418
1992-03-04 00:00:00-05:00,1.4927521679136488
1992-03-05 00:00:00-05:00,1.5136298863855127
1992-03-06 00:00:00-05:00,1.5240687131881714
1992-03-09 00:00:00-05:00,1.5240692180275115
1992-03-10 00:00:00-05:00,1.5553860547495821
1992-03-11 00:00:00-05:00,1.6075791120529175
1992-03-12 00:00:00-05:00,1.6284567628587996
1992-03-13 00:00:00-05:00,1.6284580743765529
1992-03-16 00:00:00-05:00,1.6702120644705638
1992-03-17 00:00:00-05:00,1.6284576654434206
1992-03-18 00:00:00-05:00,1.6180179374558585
1992-03-19 00:00:00-05:00,1.6284567628587996
1992-03-20 00:00:00-05:00,1.6493357419967651
1992-03-23 00:00:00-05:00,1.6702126264572144
1992-03-24 00:00:00-05:00,1.67021286196825
1992-03-25 00:00:00-05:00,1.7224063873291016
1992-03-26 00:00:00-05:00,1.7432842060577038
1992-03-27 00:00:00-05:00,1.7537229061126707
1992-03-30 00:00:00-05:00,1.7537229061126707
1992-03-31 00:00:00-05:00,1.7641623903723325
1992-04-01 00:00:00-05:00,1.7746014366606753
1992-04-02 00:00:00-05:00,1.7432847331805401
1992-04-03 00:00:00-05:00,1.711968183517456
1992-04-06 00:00:00-04:00,1.7224081584385462
1992-04-07 00:00:00-04:00,1.8267948267071747
1992-04-08 00:00:00-04:00,1.7850393865789684
1992-04-09 00:00:00-04:00,1.7474457675760442
1992-04-10 00:00:00-04:00,1.831156611442566
1992-04-13 00:00:00-04:00,1.8520824909210207
1992-04-14 00:00:00-04:00,1.862546149889628
1992-04-15 00:00:00-04:00,1.8834734885073496
1992-04-16 00:00:00-04:00,1.8834736347198486
1992-04-20 00:00:00-04:00,1.8834726874892775
1992-04-21 00:00:00-04:00,1.9567199035357403
1992-04-22 00:00:00-04:00,1.9357940327862033
1992-04-23 00:00:00-04:00,1.9253302812576292
1992-04-24 00:00:00-04:00,2.0299652094642324
1992-04-27 00:00:00-04:00,2.050893812913161
1992-04-28 00:00:00-04:00,2.0404308174074313
1992-04-29 00:00:00-04:00,2.0404308174074313
1992-04-30 00:00:00-04:00,2.0404300689697266
1992-05-01 00:00:00-04:00,2.029966325026292
1992-05-04 00:00:00-04:00,2.0508933067321777
1992-05-05 00:00:00-04:00,2.0404290668855465
1992-05-06 00:00:00-04:00,2.0613576167605703
1992-05-07 00:00:00-04:00,2.0195023668439767
1992-05-08 00:00:00-04:00,2.009039621504526
1992-05-11 00:00:00-04:00,1.977647389135053
1992-05-12 00:00:00-04:00,1.9567194870730351
1992-05-13 00:00:00-04:00,1.8730099766941395
1992-05-14 00:00:00-04:00,1.8520838605178582
1992-05-15 00:00:00-04:00,1.8939364246419959
1992-05-18 00:00:00-04:00,1.9462553039193153
1992-05-19 00:00:00-04:00,2.009038837139423
1992-05-20 00:00:00-04:00,2.050893961781203
1992-05-21 00:00:00-04:00,2.0613577064841686
1992-05-22 00:00:00-04:00,2.0718213622249775
1992-05-26 00:00:00-04:00,2.1032120375072254
1992-05-27 00:00:00-04:00,2.145066869258881
1992-05-28 00:00:00-04:00,2.103211905956268
1992-05-29 00:00:00-04:00,2.092748940593064
1992-06-01 00:00:00-04:00,2.0613582545313345
1992-06-02 00:00:00-04:00,2.103212594985962
1992-06-03 00:00:00-04:00,2.1136763095855713
1992-06-04 00:00:00-04:00,2.0927488507323004
1992-06-05 00:00:00-04:00,2.113675778987361
1992-06-08 00:00:00-04:00,2.155531925975152
1992-06-09 00:00:00-04:00,2.2183144092559814
1992-06-10 00:00:00-04:00,2.218313271658761
1992-06-11 00:00:00-04:00,2.1973853483112578
1992-06-12 00:00:00-04:00,2.260169091625748
1992-06-15 00:00:00-04:00,2.228778156469453
1992-06-16 00:00:00-04:00,2.228777467357039
1992-06-17 00:00:00-04:00,2.218313111199273
1992-06-18 00:00:00-04:00,2.155530664655897
1992-06-19 00:00:00-04:00,2.1764581468370223
1992-06-22 00:00:00-04:00,2.1450674533843994
1992-06-23 00:00:00-04:00,2.1450674533843994
1992-06-24 00:00:00-04:00,2.155531406402588
1992-06-25 00:00:00-04:00,2.1555306100845337
1992-06-26 00:00:00-04:00,2.0927488507323004
1992-06-29 00:00:00-04:00,2.092749496986126
1992-06-30 00:00:00-04:00,2.134603261947632
1992-07-01 00:00:00-04:00,2.1555320551762214
1992-07-02 00:00:00-04:00,2.197385787963867
1992-07-06 00:00:00-04:00,2.2183144092559814
1992-07-07 00:00:00-04:00,2.218314139495993
1992-07-08 00:00:00-04:00,2.2287778854370117
1992-07-09 00:00:00-04:00,2.243454052681147
1992-07-10 00:00:00-04:00,2.274905651388034
1992-07-13 00:00:00-04:00,2.232970622528431
1992-07-14 00:00:00-04:00,2.274903958541337
1992-07-15 00:00:00-04:00,2.4111887838988175
1992-07-16 00:00:00-04:00,2.348289141371914
1992-07-17 00:00:00-04:00,2.306354522705078
1992-07-20 00:00:00-04:00,2.3063552654283934
1992-07-21 00:00:00-04:00,2.2749043243740674
1992-07-22 00:00:00-04:00,2.2853881126027473
1992-07-23 00:00:00-04:00,2.3482894897460938
1992-07-24 00:00:00-04:00,2.348289720939867
1992-07-27 00:00:00-04:00,2.4216725100641665
1992-07-28 00:00:00-04:00,2.4111891733972652
1992-07-29 00:00:00-04:00,2.39022167072546
1992-07-30 00:00:00-04:00,2.3902217308339133
1992-07-31 00:00:00-04:00,2.442638874053955
1992-08-03 00:00:00-04:00,2.432156671451617
1992-08-04 00:00:00-04:00,2.474090712411063
1992-08-05 00:00:00-04:00,2.411188915235187
1992-08-06 00:00:00-04:00,2.1805543899536133
1992-08-07 00:00:00-04:00,2.180553927951389
1992-08-10 00:00:00-04:00,2.358771945936564
1992-08-11 00:00:00-04:00,2.3797388076782227
1992-08-12 00:00:00-04:00,2.390222217725671
1992-08-13 00:00:00-04:00,2.4321551861623343
1992-08-14 00:00:00-04:00,2.5369900186856587
1992-08-17 00:00:00-04:00,2.4950567241442405
1992-08-18 00:00:00-04:00,2.4636062331821607
1992-08-19 00:00:00-04:00,2.3482885862651623
1992-08-20 00:00:00-04:00,2.432155940843665
1992-08-21 00:00:00-04:00,2.4216725100641665
1992-08-24 00:00:00-04:00,2.400705099105835
1992-08-25 00:00:00-04:00,2.4007060020527944
1992-08-26 00:00:00-04:00,2.474089439709981
1992-08-27 00:00:00-04:00,2.5055394034740353
1992-08-28 00:00:00-04:00,2.5579570399390326
1992-08-31 00:00:00-04:00,2.6208580501617926
1992-09-01 00:00:00-04:00,2.5998891983032224
1992-09-02 00:00:00-04:00,2.6418254691434195
1992-09-03 00:00:00-04:00,2.6208582627345844
1992-09-04 00:00:00-04:00,2.6313411256541377
1992-09-08 00:00:00-04:00,2.6523067010316814
1992-09-09 00:00:00-04:00,2.736176084016116
1992-09-10 00:00:00-04:00,2.746657532293678
1992-09-11 00:00:00-04:00,2.7361747339197895
1992-09-14 00:00:00-04:00,2.7781094791311207
1992-09-15 00:00:00-04:00,2.767625018217718
1992-09-16 00:00:00-04:00,2.7571426151376786
1992-09-17 00:00:00-04:00,2.7676259994506833
1992-09-18 00:00:00-04:00,2.809560837952987
1992-09-21 00:00:00-04:00,2.9039097578405473
1992-09-22 00:00:00-04:00,2.8934271104874147
1992-09-23 00:00:00-04:00,2.935361623764038
1992-09-24 00:00:00-04:00,2.9458426537213627
1992-09-25 00:00:00-04:00,2.966810856671894
1992-09-28 00:00:00-04:00,2.8514935031081694
1992-09-29 00:00:00-04:00,2.820041336256639
1992-09-30 00:00:00-04:00,2.8305255739312423
1992-10-01 00:00:00-04:00,2.7781100189963053
1992-10-02 00:00:00-04:00,2.7152090072631836
1992-10-05 00:00:00-04:00,2.7152086458806917
1992-10-06 00:00:00-04:00,2.662791344854567
1992-10-07 00:00:00-04:00,2.6523088408451456
1992-10-08 00:00:00-04:00,2.666975362226367
1992-10-09 00:00:00-04:00,2.666974915398492
1992-10-12 00:00:00-04:00,2.6459756406399575
1992-10-13 00:00:00-04:00,2.645975112915039
1992-10-14 00:00:00-04:00,2.645975112915039
1992-10-15 00:00:00-04:00,2.64597452545166
1992-10-16 00:00:00-04:00,2.635474700194139
1992-10-19 00:00:00-04:00,2.7299738452382334
1992-10-20 00:00:00-04:00,2.8664735211266414
1992-10-21 00:00:00-04:00,2.8244717730615374
1992-10-22 00:00:00-04:00,2.782474384006304
1992-10-23 00:00:00-04:00,2.666975447311703
1992-10-26 00:00:00-05:00,2.656475459225476
1992-10-27 00:00:00-05:00,2.6774742970099816
1992-10-28 00:00:00-05:00,2.5934754731703777
1992-10-29 00:00:00-05:00,2.572476437421349
1992-10-30 00:00:00-05:00,2.603975077144435
1992-11-02 00:00:00-05:00,2.572475359324486
1992-11-03 00:00:00-05:00,2.603975097338359
1992-11-04 00:00:00-05:00,2.5304764448068084
1992-11-05 00:00:00-05:00,2.4359772258809866
1992-11-06 00:00:00-05:00,2.3729779108976707
1992-11-09 00:00:00-05:00,2.4359771963783294
1992-11-10 00:00:00-05:00,2.3939776132846697
1992-11-11 00:00:00-05:00,2.4359767646120307
1992-11-12 00:00:00-05:00,2.4359758535326828
1992-11-13 00:00:00-05:00,2.425477318722626
1992-11-16 00:00:00-05:00,2.4254774222007165
1992-11-17 00:00:00-05:00,2.4359772205352783
1992-11-18 00:00:00-05:00,2.435977272721319
1992-11-19 00:00:00-05:00,2.425476886332035
1992-11-20 00:00:00-05:00,2.372978409476902
1992-11-23 00:00:00-05:00,2.3939776132846697
1992-11-24 00:00:00-05:00,2.425477931810462
1992-11-25 00:00:00-05:00,2.404478122877038
1992-11-27 00:00:00-05:00,2.414977416909974
1992-11-30 00:00:00-05:00,2.4359771963783294
1992-12-01 00:00:00-05:00,2.383477874561749
1992-12-02 00:00:00-05:00,2.372976478010286
1992-12-03 00:00:00-05:00,2.3939779498360374
1992-12-04 00:00:00-05:00,2.3099779869828905
1992-12-07 00:00:00-05:00,2.3414776868053844
1992-12-08 00:00:00-05:00,2.351978011195435
1992-12-09 00:00:00-05:00,2.3519781669684217
1992-12-10 00:00:00-05:00,2.383477659968587
1992-12-11 00:00:00-05:00,2.4569757563002566
1992-12-14 00:00:00-05:00,2.467477031243153
1992-12-15 00:00:00-05:00,2.4464771223479302
1992-12-16 00:00:00-05:00,2.425477931810462
1992-12-17 00:00:00-05:00,2.425476864764565
1992-12-18 00:00:00-05:00,2.41497802734375
1992-12-21 00:00:00-05:00,2.404477491252748
1992-12-22 00:00:00-05:00,2.3939775895442206
1992-12-23 00:00:00-05:00,2.3834783034854463
1992-12-24 00:00:00-05:00,2.383478313943614
1992-12-28 00:00:00-05:00,2.404477491252748
1992-12-29 00:00:00-05:00,2.3834772653747023
1992-12-30 00:00:00-05:00,2.404477491252748
1992-12-31 00:00:00-05:00,2.3939763779335834
1993-01-04 00:00:00-05:00,2.477976774240469
1993-01-05 00:00:00-05:00,2.4254770571902644
1993-01-06 00:00:00-05:00,2.477976774240469
1993-01-07 00:00:00-05:00,2.4254759576122833
1993-01-08 00:00:00-05:00,2.404476728525248
1993-01-11 00:00:00-05:00,2.346550979921895
1993-01-12 00:00:00-05:00,2.2834155078327982
1993-01-13 00:00:00-05:00,2.293937736803347
1993-01-14 00:00:00-05:00,2.3149851326630495
1993-01-15 00:00:00-05:00,2.2728924289826424
1993-01-18 00:00:00-05:00,2.283415604520727
1993-01-19 00:00:00-05:00,2.2623707590059996
1993-01-20 00:00:00-05:00,2.325505687309815
1993-01-21 00:00:00-05:00,2.314983648913247
1993-01-22 00:00:00-05:00,2.367598025695137
1993-01-25 00:00:00-05:00,2.4096871867018232
1993-01-26 00:00:00-05:00,2.5675271522900287
1993-01-27 00:00:00-05:00,2.514913037419319
1993-01-28 00:00:00-05:00,2.535958823204041
1993-01-29 00:00:00-05:00,2.630663434351523
1993-02-01 00:00:00-05:00,2.693798828125
1993-02-02 00:00:00-05:00,2.725367395932438
1993-02-03 00:00:00-05:00,2.7569354196028275
1993-02-04 00:00:00-05:00,2.914773629584783
1993-02-05 00:00:00-05:00,2.9884324636724258
1993-02-08 00:00:00-05:00,3.0305230617523193
1993-02-09 00:00:00-05:00,3.0305230508002294
1993-02-10 00:00:00-05:00,2.977911387171064
1993-02-11 00:00:00-05:00,2.9358204191985444
1993-02-12 00:00:00-05:00,3.0200016498565674
1993-02-16 00:00:00-05:00,3.0094784764077165
1993-02-17 00:00:00-05:00,2.935820952853274
1993-02-18 00:00:00-05:00,2.977909520478316
1993-02-19 00:00:00-05:00,2.9884324636724258
1993-02-22 00:00:00-05:00,3.0305247633424526
1993-02-23 00:00:00-05:00,3.093660747882017
1993-02-24 00:00:00-05:00,3.0410469575210732
1993-02-25 00:00:00-05:00,3.020001814784115
1993-02-26 00:00:00-05:00,2.956865975197325
1993-03-01 00:00:00-05:00,2.9884321689605713
1993-03-02 00:00:00-05:00,3.0094776605304916
1993-03-03 00:00:00-05:00,3.00948056208542
1993-03-04 00:00:00-05:00,3.198886682491491
1993-03-05 00:00:00-05:00,3.177841045061747
1993-03-08 00:00:00-05:00,3.1673204517052844
1993-03-09 00:00:00-05:00,3.2304564075532305
1993-03-10 00:00:00-05:00,3.219931743361733
1993-03-11 00:00:00-05:00,3.2409775127618077
1993-03-12 00:00:00-05:00,3.314636245850594
1993-03-15 00:00:00-05:00,3.26202216056677
1993-03-16 00:00:00-05:00,3.272545099258423
1993-03-17 00:00:00-05:00,3.2830694670961194
1993-03-18 00:00:00-05:00,3.3462034687399864
1993-03-19 00:00:00-05:00,3.3567271749928316
1993-03-22 00:00:00-05:00,3.3567280769348145
1993-03-23 00:00:00-05:00,3.3777724864347927
1993-03-24 00:00:00-05:00,3.3462045192718506
1993-03-25 00:00:00-05:00,3.3041135911018618
1993-03-26 00:00:00-05:00,3.2620218301274977
1993-03-29 00:00:00-05:00,3.314637442741274
1993-03-30 00:00:00-05:00,3.3672477295680077
1993-03-31 00:00:00-05:00,3.3882937906687136
1993-04-01 00:00:00-05:00,3.388294078409672
1993-04-02 00:00:00-05:00,3.3356814011217306
1993-04-05 00:00:00-04:00,3.304112434387207
1993-04-06 00:00:00-04:00,3.3041127690902123
1993-04-07 00:00:00-04:00,3.26202216056677
1993-04-08 00:00:00-04:00,3.2775876017717214
1993-04-12 00:00:00-04:00,3.2775875389950833
1993-04-13 00:00:00-04:00,3.351359669978802
1993-04-14 00:00:00-04:00,3.2986644744873046
1993-04-15 00:00:00-04:00,3.288126431502305
1993-04-16 00:00:00-04:00,3.2565090179443357
1993-04-19 00:00:00-04:00,3.25650986799827
1993-04-20 00:00:00-04:00,3.309203385559369
1993-04-21 00:00:00-04:00,3.3829762706389794
1993-04-22 00:00:00-04:00,3.2670484258977064
1993-04-23 00:00:00-04:00,3.1511194854974747
1993-04-26 00:00:00-04:00,3.0562717205769303
1993-04-27 00:00:00-04:00,3.1405821344266434
1993-04-28 00:00:00-04:00,3.1195044019808273
1993-04-29 00:00:00-04:00,3.1405843637491526
1993-04-30 00:00:00-04:00,3.2038146972656247
1993-05-03 00:00:00-04:00,3.340820550918579
1993-05-04 00:00:00-04:00,3.319742202758789
1993-05-05 00:00:00-04:00,3.319742202758789
1993-05-06 00:00:00-04:00,3.3197438188746005
1993-05-07 00:00:00-04:00,3.319742202758789
1993-05-10 00:00:00-04:00,3.3302818985728475
1993-05-11 00:00:00-04:00,3.2248939954781832
1993-05-12 00:00:00-04:00,3.3302816848273533
1993-05-13 00:00:00-04:00,3.309202922715081
1993-05-14 00:00:00-04:00,3.41459356694063
1993-05-17 00:00:00-04:00,3.488364834685225
1993-05-18 00:00:00-04:00,3.50944274083703
1993-05-19 00:00:00-04:00,3.5832150160376703
1993-05-20 00:00:00-04:00,3.5199818098723
1993-05-21 00:00:00-04:00,3.530517859373264
1993-05-24 00:00:00-04:00,3.5410595452607567
1993-05-25 00:00:00-04:00,3.4989037513732915
1993-05-26 00:00:00-04:00,3.498903701255271
1993-05-27 00:00:00-04:00,3.509443158261916
1993-05-28 00:00:00-04:00,3.5726763683206895
1993-06-01 00:00:00-04:00,3.604292665602844
1993-06-02 00:00:00-04:00,3.646447871508223
1993-06-03 00:00:00-04:00,3.7518357285021384
1993-06-04 00:00:00-04:00,3.709680080413818
1993-06-07 00:00:00-04:00,3.709680080413818
1993-06-08 00:00:00-04:00,3.699142129256807
1993-06-09 00:00:00-04:00,3.646446897224946
1993-06-10 00:00:00-04:00,3.699142129256807
1993-06-11 00:00:00-04:00,3.646448222203041
1993-06-14 00:00:00-04:00,3.5199824179091106
1993-06-15 00:00:00-04:00,3.4567492008209233
1993-06-16 00:00:00-04:00,3.467287101545133
1993-06-17 00:00:00-04:00,3.519981758935111
1993-06-18 00:00:00-04:00,3.562137416986754
1993-06-21 00:00:00-04:00,3.5621381042993554
1993-06-22 00:00:00-04:00,3.6042928893771298
1993-06-23 00:00:00-04:00,3.5515982091954323
1993-06-24 00:00:00-04:00,3.5726767654826004
1993-06-25 00:00:00-04:00,3.4567492008209233
1993-06-28 00:00:00-04:00,3.456749385613439
1993-06-29 00:00:00-04:00,3.4462105999051973
1993-06-30 00:00:00-04:00,3.4145938282363986
1993-07-01 00:00:00-04:00,3.425132859232994
1993-07-02 00:00:00-04:00,3.414593988896893
1993-07-06 00:00:00-04:00,3.4040552817285064
1993-07-07 00:00:00-04:00,3.351360661433293
1993-07-08 00:00:00-04:00,3.425131684326264
1993-07-09 00:00:00-04:00,3.493416050360316
1993-07-12 00:00:00-04:00,3.5672947336645686
1993-07-13 00:00:00-04:00,3.588403809000049
1993-07-14 00:00:00-04:00,3.567295551300049
1993-07-15 00:00:00-04:00,3.588403193723588
1993-07-16 00:00:00-04:00,3.546186685562134
1993-07-19 00:00:00-04:00,3.577849680150049
1993-07-20 00:00:00-04:00,3.5461864808026484
1993-07-21 00:00:00-04:00,3.5884029865264893
1993-07-22 00:00:00-04:00,3.588403037867363
1993-07-23 00:00:00-04:00,3.577848860095529
1993-07-26 00:00:00-04:00,3.6095112910312888
1993-07-27 00:00:00-04:00,3.5567408126024973
1993-07-28 00:00:00-04:00,3.546186871627672
1993-07-29 00:00:00-04:00,3.5567406581214747
1993-07-30 00:00:00-04:00,3.5884043618031614
1993-08-02 00:00:00-04:00,3.598957543373108
1993-08-03 00:00:00-04:00,3.7044985100124657
1993-08-04 00:00:00-04:00,3.746714108520084
1993-08-05 00:00:00-04:00,3.7889306055174936
1993-08-06 00:00:00-04:00,3.799483869328845
1993-08-09 00:00:00-04:00,3.7889306473207998
1993-08-10 00:00:00-04:00,3.841703197230464
1993-08-11 00:00:00-04:00,3.905025298396746
1993-08-12 00:00:00-04:00,4.05278415432224
1993-08-13 00:00:00-04:00,4.073893870805439
1993-08-16 00:00:00-04:00,4.010566806046209
1993-08-17 00:00:00-04:00,4.095000157356262
1993-08-18 00:00:00-04:00,4.211095695077938
1993-08-19 00:00:00-04:00,4.348301854464087
1993-08-20 00:00:00-04:00,4.263866687802368
1993-08-23 00:00:00-04:00,4.36940900762598
1993-08-24 00:00:00-04:00,4.527721170016697
1993-08-25 00:00:00-04:00,4.432732695240086
1993-08-26 00:00:00-04:00,4.358851399670168
1993-08-27 00:00:00-04:00,4.24276074098081
1993-08-30 00:00:00-04:00,4.137214871507195
1993-08-31 00:00:00-04:00,4.211096845456024
1993-09-01 00:00:00-04:00,4.242757509736453
1993-09-02 00:00:00-04:00,4.306083992346009
1993-09-03 00:00:00-04:00,4.242756083940454
1993-09-07 00:00:00-04:00,4.25331487217728
1993-09-08 00:00:00-04:00,4.137217854577413
1993-09-09 00:00:00-04:00,4.021121214821701
1993-09-10 00:00:00-04:00,4.031675052393821
1993-09-13 00:00:00-04:00,4.0422327424102225
1993-09-14 00:00:00-04:00,4.02112322481055
1993-09-15 00:00:00-04:00,4.010566522677739
1993-09-16 00:00:00-04:00,4.052783012390137
1993-09-17 00:00:00-04:00,4.031677354009528
1993-09-20 00:00:00-04:00,4.0105670908982844
1993-09-21 00:00:00-04:00,4.031675903518479
1993-09-22 00:00:00-04:00,4.052783586591951
1993-09-23 00:00:00-04:00,4.042229175567627
1993-09-24 00:00:00-04:00,4.031675338745117
1993-09-27 00:00:00-04:00,4.021120929220015
1993-09-28 00:00:00-04:00,4.042231483208505
1993-09-29 00:00:00-04:00,4.010567676645792
1993-09-30 00:00:00-04:00,4.358853975556931
1993-10-01 00:00:00-04:00,4.453841746130655
1993-10-04 00:00:00-04:00,4.538272375219009
1993-10-05 00:00:00-04:00,4.49605655896692
1993-10-06 00:00:00-04:00,4.443286807913529
1993-10-07 00:00:00-04:00,4.390516092691077
1993-10-08 00:00:00-04:00,4.385033576157841
1993-10-11 00:00:00-04:00,4.342767981290817
1993-10-12 00:00:00-04:00,4.226540546027981
1993-10-13 00:00:00-04:00,4.110307874007262
1993-10-14 00:00:00-04:00,4.120875331404296
1993-10-15 00:00:00-04:00,4.057477666976604
1993-10-18 00:00:00-04:00,3.97294805360877
1993-10-19 00:00:00-04:00,3.888416903907428
1993-10-20 00:00:00-04:00,3.920115177771624
1993-10-21 00:00:00-04:00,3.6770875860344283
1993-10-22 00:00:00-04:00,3.7193528774172764
1993-10-25 00:00:00-04:00,3.6348242505767643
1993-10-26 00:00:00-04:00,3.571425581570738
1993-10-27 00:00:00-04:00,3.423496769135257
1993-10-28 00:00:00-04:00,3.508028893894316
1993-10-29 00:00:00-04:00,3.6665230745460553
1993-11-01 00:00:00-05:00,3.62425876688479
1993-11-02 00:00:00-05:00,3.6876551381657636
1993-11-03 00:00:00-05:00,3.793317922618654
1993-11-04 00:00:00-05:00,3.825016958183712
1993-11-05 00:00:00-05:00,3.80388495627414
1993-11-08 00:00:00-05:00,3.7616202545166018
1993-11-09 00:00:00-05:00,3.6982190823126695
1993-11-10 00:00:00-05:00,3.5502930932653407
1993-11-11 00:00:00-05:00,3.5714229994905207
1993-11-12 00:00:00-05:00,3.5185937881469727
1993-11-15 00:00:00-05:00,3.5185947287771118
1993-11-16 00:00:00-05:00,3.3600995480259765
1993-11-17 00:00:00-05:00,3.3812312678889827
1993-11-18 00:00:00-05:00,3.5185938240152543
1993-11-19 00:00:00-05:00,3.5502930932653407
1993-11-22 00:00:00-05:00,3.5502935204139123
1993-11-23 00:00:00-05:00,3.4551964961677974
1993-11-24 00:00:00-05:00,3.4551962744105946
1993-11-26 00:00:00-05:00,3.4657621028260417
1993-11-29 00:00:00-05:00,3.3600986675151345
1993-11-30 00:00:00-05:00,3.2755678834267035
1993-12-01 00:00:00-05:00,3.286135196685791
1993-12-02 00:00:00-05:00,3.275568845571046
1993-12-03 00:00:00-05:00,3.296700000762939
1993-12-06 00:00:00-05:00,3.2967001272085756
1993-12-07 00:00:00-05:00,3.2967012004487835
1993-12-08 00:00:00-05:00,3.3072678989152817
1993-12-09 00:00:00-05:00,3.2861355465222024
1993-12-10 00:00:00-05:00,3.2438688393935418
1993-12-13 00:00:00-05:00,3.286133721617402
1993-12-14 00:00:00-05:00,3.2438680018697466
1993-12-15 00:00:00-05:00,3.2227368283979967
1993-12-16 00:00:00-05:00,3.212171080844854
1993-12-17 00:00:00-05:00,3.2438698936449852
1993-12-20 00:00:00-05:00,3.1910367292516373
1993-12-21 00:00:00-05:00,3.0748057793563524
1993-12-22 00:00:00-05:00,3.0114098232571442
1993-12-23 00:00:00-05:00,3.1804717849743995
1993-12-27 00:00:00-05:00,3.169905334423593
1993-12-28 00:00:00-05:00,3.3072660735675266
1993-12-29 00:00:00-05:00,3.2650024944563003
1993-12-30 00:00:00-05:00,3.275568845571046
1993-12-31 00:00:00-05:00,3.2861336546066475
1994-01-03 00:00:00-05:00,3.296700000762939
1994-01-04 00:00:00-05:00,3.2755674340854437
1994-01-05 00:00:00-05:00,3.360098572464677
1994-01-06 00:00:00-05:00,3.539727950164445
1994-01-07 00:00:00-05:00,3.6982219109590027
1994-01-10 00:00:00-05:00,3.6715879889406327
1994-01-11 00:00:00-05:00,3.7879745811223984
1994-01-12 00:00:00-05:00,3.724494052071103
1994-01-13 00:00:00-05:00,3.661006004670087
1994-01-14 00:00:00-05:00,3.5763584382606277
1994-01-17 00:00:00-05:00,3.5551962725884088
1994-01-18 00:00:00-05:00,3.5975174383185378
1994-01-19 00:00:00-05:00,3.7033281312785813
1994-01-20 00:00:00-05:00,3.7350713574156464
1994-01-21 00:00:00-05:00,3.6504234477531075
1994-01-24 00:00:00-05:00,3.650425062460058
1994-01-25 00:00:00-05:00,3.597520351409912
1994-01-26 00:00:00-05:00,3.5975187601045118
1994-01-27 00:00:00-05:00,3.639843352411834
1994-01-28 00:00:00-05:00,3.7244889736175537
1994-01-31 00:00:00-05:00,3.7456518813503363
1994-02-01 00:00:00-05:00,3.7562354095799013
1994-02-02 00:00:00-05:00,3.777396609143513
1994-02-03 00:00:00-05:00,3.9361121239869488
1994-02-04 00:00:00-05:00,3.9149486432310012
1994-02-07 00:00:00-05:00,3.8408823192119597
1994-02-08 00:00:00-05:00,3.809138591672809
1994-02-09 00:00:00-05:00,3.883207932361582
1994-02-10 00:00:00-05:00,3.8302983194589615
1994-02-11 00:00:00-05:00,3.745654581667303
1994-02-14 00:00:00-05:00,3.851460188627243
1994-02-15 00:00:00-05:00,3.703327104449272
1994-02-16 00:00:00-05:00,3.7033281354017036
1994-02-17 00:00:00-05:00,3.650425452935068
1994-02-18 00:00:00-05:00,3.6398445095932273
1994-02-22 00:00:00-05:00,3.6398425102233887
1994-02-23 00:00:00-05:00,3.618682983629298
1994-02-24 00:00:00-05:00,3.671583973813331
1994-02-25 00:00:00-05:00,3.7244902474539616
1994-02-28 00:00:00-05:00,3.7033281354017036
1994-03-01 00:00:00-05:00,3.6610043852828267
1994-03-02 00:00:00-05:00,3.6186822358299704
1994-03-03 00:00:00-05:00,3.6081012936199413
1994-03-04 00:00:00-05:00,3.5869388373001763
1994-03-07 00:00:00-05:00,3.6610063962769086
1994-03-08 00:00:00-05:00,3.5975194902562384
1994-03-09 00:00:00-05:00,3.523452865411036
1994-03-10 00:00:00-05:00,3.39648305917088
1994-03-11 00:00:00-05:00,3.3541586985840603
1994-03-14 00:00:00-05:00,3.396483650380391
1994-03-15 00:00:00-05:00,3.5340354936362726
1994-03-16 00:00:00-05:00,3.5657783274114485
1994-03-17 00:00:00-05:00,3.5657760207130016
1994-03-18 00:00:00-05:00,3.745654581667303
1994-03-21 00:00:00-05:00,3.8726248741149902
1994-03-22 00:00:00-05:00,3.8514626520984576
1994-03-23 00:00:00-05:00,3.85146228800792
1994-03-24 00:00:00-05:00,3.7879776040712994
1994-03-25 00:00:00-05:00,3.7985585470994314
1994-03-28 00:00:00-05:00,3.798555177518691
1994-03-29 00:00:00-05:00,3.671586886048317
1994-03-30 00:00:00-05:00,3.5446156403597664
1994-03-31 00:00:00-05:00,3.597520736225864
1994-04-04 00:00:00-04:00,3.5975227723843264
1994-04-05 00:00:00-04:00,3.5763584077358246
1994-04-06 00:00:00-04:00,3.5975187601045118
1994-04-07 00:00:00-04:00,3.6398445095932273
1994-04-08 00:00:00-04:00,3.608101679567705
1994-04-11 00:00:00-04:00,3.6025765089862114
1994-04-12 00:00:00-04:00,3.6025747864745385
1994-04-13 00:00:00-04:00,3.644957273855977
1994-04-14 00:00:00-04:00,3.6555565211732506
1994-04-15 00:00:00-04:00,3.750916706754806
1994-04-18 00:00:00-04:00,3.941642776653773
1994-04-19 00:00:00-04:00,3.9204504899173083
1994-04-20 00:00:00-04:00,3.8780677318573
1994-04-21 00:00:00-04:00,3.867473071036131
1994-04-22 00:00:00-04:00,3.8886632635018366
1994-04-25 00:00:00-04:00,3.909853811013071
1994-04-26 00:00:00-04:00,4.026406747508423
1994-04-28 00:00:00-04:00,4.037004470825195
1994-04-29 00:00:00-04:00,4.026407718658447
1994-05-02 00:00:00-04:00,4.005217034047044
1994-05-03 00:00:00-04:00,4.026407764313069
1994-05-04 00:00:00-04:00,3.984024479514674
1994-05-05 00:00:00-04:00,4.04760031083643
1994-05-06 00:00:00-04:00,4.015814116062262
1994-05-09 00:00:00-04:00,4.142964399872218
1994-05-10 00:00:00-04:00,4.164155534597543
1994-05-11 00:00:00-04:00,4.132369120503955
1994-05-12 00:00:00-04:00,4.100579181700263
1994-05-13 00:00:00-04:00,4.142963869231088
1994-05-16 00:00:00-04:00,4.1641564759452026
1994-05-17 00:00:00-04:00,4.132366781159649
1994-05-18 00:00:00-04:00,4.047598361968994
1994-05-19 00:00:00-04:00,4.058196151288182
1994-05-20 00:00:00-04:00,4.00521690404447
1994-05-23 00:00:00-04:00,3.9310465143301947
1994-05-24 00:00:00-04:00,3.899260095047624
1994-05-25 00:00:00-04:00,3.8780694798211366
1994-05-26 00:00:00-04:00,3.7933004285248235
1994-05-27 00:00:00-04:00,3.772109969323423
1994-05-31 00:00:00-04:00,3.761510869318789
1994-06-01 00:00:00-04:00,3.7297248732266954
1994-06-02 00:00:00-04:00,3.7297244262695313
1994-06-03 00:00:00-04:00,3.6979399084701323
1994-06-06 00:00:00-04:00,3.7297244262695313
1994-06-07 00:00:00-04:00,3.7085339259565546
1994-06-08 00:00:00-04:00,3.7721076583862305
1994-06-09 00:00:00-04:00,3.6873412520386455
1994-06-10 00:00:00-04:00,3.6449601950765658
1994-06-13 00:00:00-04:00,3.7827066091390757
1994-06-14 00:00:00-04:00,3.867473071036131
1994-06-15 00:00:00-04:00,3.899258865647485
1994-06-16 00:00:00-04:00,3.878067908415923
1994-06-17 00:00:00-04:00,3.8992566305493552
1994-06-20 00:00:00-04:00,4.026408756480498
1994-06-21 00:00:00-04:00,3.920448242671906
1994-06-22 00:00:00-04:00,4.047597915407211
1994-06-23 00:00:00-04:00,4.047601953796718
1994-06-24 00:00:00-04:00,3.8992593588073396
1994-06-27 00:00:00-04:00,3.8568761049072595
1994-06-28 00:00:00-04:00,3.8356844779572197
1994-06-29 00:00:00-04:00,3.878068887669107
1994-06-30 00:00:00-04:00,3.8568772544031558
1994-07-01 00:00:00-04:00,3.899261116322892
1994-07-05 00:00:00-04:00,3.8568731167099695
1994-07-06 00:00:00-04:00,3.7297275249774637
1994-07-07 00:00:00-04:00,3.8780668794109836
1994-07-08 00:00:00-04:00,3.772106674584476
1994-07-11 00:00:00-04:00,3.756040688311116
1994-07-12 00:00:00-04:00,3.777261257171631
1994-07-13 00:00:00-04:00,3.7984803793105213
1994-07-14 00:00:00-04:00,3.756039492015181
1994-07-15 00:00:00-04:00,3.67115819731424
1994-07-18 00:00:00-04:00,3.6923786381312778
1994-07-19 00:00:00-04:00,3.6923787649287734
1994-07-20 00:00:00-04:00,3.67115674720091
1994-07-21 00:00:00-04:00,3.5226127222964636
1994-07-22 00:00:00-04:00,3.607493474811851
1994-07-25 00:00:00-04:00,3.5650562618089756
1994-07-26 00:00:00-04:00,3.4377313829817866
1994-07-27 00:00:00-04:00,3.3952913405020024
1994-07-28 00:00:00-04:00,3.352847597002983
1994-07-29 00:00:00-04:00,3.395290254796826
1994-08-01 00:00:00-04:00,3.352847597002983
1994-08-02 00:00:00-04:00,3.3740681514143946
1994-08-03 00:00:00-04:00,3.3740681514143946
1994-08-04 00:00:00-04:00,3.3740681514143946
1994-08-05 00:00:00-04:00,3.3740701815661263
1994-08-08 00:00:00-04:00,3.2891883850097656
1994-08-09 00:00:00-04:00,3.267965379357338
1994-08-10 00:00:00-04:00,3.437729835510254
1994-08-11 00:00:00-04:00,3.4165108188893063
1994-08-12 00:00:00-04:00,3.3740681514143946
1994-08-15 00:00:00-04:00,3.395290254796826
1994-08-16 00:00:00-04:00,3.3952913405020024
1994-08-17 00:00:00-04:00,3.352849126611866
1994-08-18 00:00:00-04:00,3.3740707696238648
1994-08-19 00:00:00-04:00,3.3528481653541515
1994-08-22 00:00:00-04:00,3.352847777403795
1994-08-23 00:00:00-04:00,3.3104089552356353
1994-08-24 00:00:00-04:00,3.310409056989452
1994-08-25 00:00:00-04:00,3.3740701815661263
1994-08-26 00:00:00-04:00,3.2679655551910405
1994-08-29 00:00:00-04:00,3.3104089774832817
1994-08-30 00:00:00-04:00,3.2043038885314745
1994-08-31 00:00:00-04:00,3.2679655551910405
1994-09-01 00:00:00-04:00,3.2467472445580268
1994-09-02 00:00:00-04:00,3.33162962786759
1994-09-06 00:00:00-04:00,3.3316299589524356
1994-09-07 00:00:00-04:00,3.4377310390932014
1994-09-08 00:00:00-04:00,3.480172184692032
1994-09-09 00:00:00-04:00,3.649937402911303
1994-09-12 00:00:00-04:00,3.522614005135327
1994-09-13 00:00:00-04:00,3.501394271850586
1994-09-14 00:00:00-04:00,3.480173332350595
1994-09-15 00:00:00-04:00,3.5650556087493896
1994-09-16 00:00:00-04:00,3.5862759268561075
1994-09-19 00:00:00-04:00,3.6499378851481845
1994-09-20 00:00:00-04:00,3.522614005135327
1994-09-21 00:00:00-04:00,3.480170923471451
1994-09-22 00:00:00-04:00,3.437729814648628
1994-09-23 00:00:00-04:00,3.4377310390932014
1994-09-26 00:00:00-04:00,3.5013939014502933
1994-09-27 00:00:00-04:00,3.543833848941757
1994-09-28 00:00:00-04:00,3.522614843195135
1994-09-29 00:00:00-04:00,3.522614843195135
1994-09-30 00:00:00-04:00,3.5226136424058785
1994-10-03 00:00:00-04:00,3.4589503900504406
1994-10-04 00:00:00-04:00,3.4589519470742665
1994-10-05 00:00:00-04:00,3.374071104926352
1994-10-06 00:00:00-04:00,3.437729835510254
1994-10-07 00:00:00-04:00,3.4640810785914318
1994-10-10 00:00:00-04:00,3.591597655240227
1994-10-11 00:00:00-04:00,3.6128497123718257
1994-10-12 00:00:00-04:00,3.570343156294389
1994-10-13 00:00:00-04:00,3.549093108801615
1994-10-14 00:00:00-04:00,3.570345163345337
1994-10-17 00:00:00-04:00,3.6128492724327814
1994-10-18 00:00:00-04:00,3.570344159769457
1994-10-19 00:00:00-04:00,3.6341011524200444
1994-10-20 00:00:00-04:00,3.6128492724327814
1994-10-21 00:00:00-04:00,3.527840954101014
1994-10-24 00:00:00-04:00,3.570345598108628
1994-10-25 00:00:00-04:00,3.6128492724327814
1994-10-26 00:00:00-04:00,3.5703435688349554
1994-10-27 00:00:00-04:00,3.6553505558078574
1994-10-28 00:00:00-04:00,3.74035916407464
1994-10-31 00:00:00-05:00,3.825366860729153
1994-11-01 00:00:00-05:00,3.7616118112306913
1994-11-02 00:00:00-05:00,3.761610268184117
1994-11-03 00:00:00-05:00,3.7403587082685053
1994-11-04 00:00:00-05:00,3.7191061973571777
1994-11-07 00:00:00-05:00,3.740359799615268
1994-11-08 00:00:00-05:00,3.6766037940979004
1994-11-09 00:00:00-05:00,3.6978557109832764
1994-11-10 00:00:00-05:00,3.6978557109832764
1994-11-11 00:00:00-05:00,3.697857312988817
1994-11-14 00:00:00-05:00,3.6128492724327814
1994-11-15 00:00:00-05:00,3.570341234376445
1994-11-16 00:00:00-05:00,3.5490911136973984
1994-11-17 00:00:00-05:00,3.4640849386371158
1994-11-18 00:00:00-05:00,3.336572725009295
1994-11-21 00:00:00-05:00,3.2728169403578105
1994-11-22 00:00:00-05:00,3.1878068447113033
1994-11-23 00:00:00-05:00,3.2090592870906907
1994-11-25 00:00:00-05:00,3.102798110041125
1994-11-28 00:00:00-05:00,3.1240501518907218
1994-11-29 00:00:00-05:00,3.0815469975374183
1994-11-30 00:00:00-05:00,3.1453021937403185
1994-12-01 00:00:00-05:00,3.081546401655352
1994-12-02 00:00:00-05:00,3.1453025341033936
1994-12-05 00:00:00-05:00,3.1240490555763247
1994-12-06 00:00:00-05:00,2.9752848148345947
1994-12-07 00:00:00-05:00,2.975285281873729
1994-12-08 00:00:00-05:00,3.08154661655426
1994-12-09 00:00:00-05:00,3.1453031423140545
1994-12-12 00:00:00-05:00,3.1453021708750883
1994-12-13 00:00:00-05:00,3.166556650086453
1994-12-14 00:00:00-05:00,3.2515640620943866
1994-12-15 00:00:00-05:00,3.379074839622744
1994-12-16 00:00:00-05:00,3.2940666675567627
1994-12-19 00:00:00-05:00,3.2940675144071703
1994-12-20 00:00:00-05:00,3.230310337655496
1994-12-21 00:00:00-05:00,3.1878066224020882
1994-12-22 00:00:00-05:00,3.1665542355899152
1994-12-23 00:00:00-05:00,3.1027975082397465
1994-12-27 00:00:00-05:00,3.1240512530008955
1994-12-28 00:00:00-05:00,3.0602949492785396
1994-12-29 00:00:00-05:00,3.1665530252140877
1994-12-30 00:00:00-05:00,3.209058890342712
1995-01-03 00:00:00-05:00,3.2303128242492676
1995-01-04 00:00:00-05:00,3.230309126392895
1995-01-05 00:00:00-05:00,3.16655421257019
1995-01-06 00:00:00-05:00,3.1878056591504245
1995-01-09 00:00:00-05:00,3.086621202788986
1995-01-10 00:00:00-05:00,3.0227577789970064
1995-01-11 00:00:00-05:00,2.937611823386334
1995-01-12 00:00:00-05:00,2.9801837257716968
1995-01-13 00:00:00-05:00,2.9376095499311172
1995-01-16 00:00:00-05:00,2.9376096725463867
1995-01-17 00:00:00-05:00,2.937611823386334
1995-01-18 00:00:00-05:00,3.00147165337654
1995-01-19 00:00:00-05:00,3.1079081661171384
1995-01-20 00:00:00-05:00,3.0866205692291255
1995-01-23 00:00:00-05:00,3.04404467855181
1995-01-24 00:00:00-05:00,2.980185377186742
1995-01-25 00:00:00-05:00,3.0866211238834595
1995-01-26 00:00:00-05:00,3.0653335468189136
1995-01-27 00:00:00-05:00,3.1079076076376024
1995-01-30 00:00:00-05:00,3.086621202788986
1995-01-31 00:00:00-05:00,3.022759437561035
1995-02-01 00:00:00-05:00,3.0227600744554213
1995-02-02 00:00:00-05:00,3.0440471172332764
1995-02-03 00:00:00-05:00,3.0653340816497803
1995-02-06 00:00:00-05:00,3.15048443016253
1995-02-07 00:00:00-05:00,3.2782035350799563
1995-02-08 00:00:00-05:00,3.214345601044203
1995-02-09 00:00:00-05:00,3.2569164991378785
1995-02-10 00:00:00-05:00,3.2143440978978974
1995-02-13 00:00:00-05:00,3.2782034166397587
1995-02-14 00:00:00-05:00,3.299490451812744
1995-02-15 00:00:00-05:00,3.2994909452486643
1995-02-16 00:00:00-05:00,3.363351207971573
1995-02-17 00:00:00-05:00,3.405927332436166
1995-02-21 00:00:00-05:00,3.4910755157470703
1995-02-22 00:00:00-05:00,3.469787359237671
1995-02-23 00:00:00-05:00,3.491074012987541
1995-02-24 00:00:00-05:00,3.5123625615747964
1995-02-27 00:00:00-05:00,3.491074012987541
1995-02-28 00:00:00-05:00,3.5336474687039496
1995-03-01 00:00:00-05:00,3.5336480863166577
1995-03-02 00:00:00-05:00,3.512363646711622
1995-03-03 00:00:00-05:00,3.5762248039245605
1995-03-06 00:00:00-05:00,3.576221534591949
1995-03-07 00:00:00-05:00,3.5762236990579743
1995-03-08 00:00:00-05:00,3.5123604357599496
1995-03-09 00:00:00-05:00,3.5762206873244784
1995-03-10 00:00:00-05:00,3.576222159645774
1995-03-13 00:00:00-05:00,3.533649444580078
1995-03-14 00:00:00-05:00,3.533650699115935
1995-03-15 00:00:00-05:00,3.5762253368602077
1995-03-16 00:00:00-05:00,3.5975104173024492
1995-03-17 00:00:00-05:00,3.682658592859904
1995-03-20 00:00:00-05:00,3.6826578692386023
1995-03-21 00:00:00-05:00,3.6187989087331864
1995-03-22 00:00:00-05:00,3.6187994480133057
1995-03-23 00:00:00-05:00,3.64008434797298
1995-03-24 00:00:00-05:00,3.6826606147429524
1995-03-27 00:00:00-05:00,3.6400838873603125
1995-03-28 00:00:00-05:00,3.746518938728933
1995-03-29 00:00:00-05:00,3.7890909830729167
1995-03-30 00:00:00-05:00,3.8529561681950346
1995-03-31 00:00:00-05:00,4.023250913862044
1995-04-03 00:00:00-04:00,4.19354526909234
1995-04-04 00:00:00-04:00,4.065826674725147
1995-04-05 00:00:00-04:00,4.001961642472201
1995-04-06 00:00:00-04:00,4.001964985998602
1995-04-07 00:00:00-04:00,3.879328756862216
1995-04-10 00:00:00-04:00,3.8153837206570995
1995-04-11 00:00:00-04:00,3.9432736777740973
1995-04-12 00:00:00-04:00,3.92195760366079
1995-04-13 00:00:00-04:00,3.9645886706269304
1995-04-17 00:00:00-04:00,3.9432736777740973
1995-04-18 00:00:00-04:00,3.9219580339581777
1995-04-19 00:00:00-04:00,3.8153837773534987
1995-04-20 00:00:00-04:00,3.8366976557551205
1995-04-21 00:00:00-04:00,3.964587725125827
1995-04-24 00:00:00-04:00,4.177741462305972
1995-04-25 00:00:00-04:00,4.007219212577942
1995-04-26 00:00:00-04:00,4.007217551566459
1995-04-27 00:00:00-04:00,3.9432723811976818
1995-04-28 00:00:00-04:00,3.9006445407867436
1995-05-01 00:00:00-04:00,3.921958684921264
1995-05-02 00:00:00-04:00,3.921958684921264
1995-05-03 00:00:00-04:00,3.921958684921264
1995-05-04 00:00:00-04:00,3.9219595382773815
1995-05-05 00:00:00-04:00,3.8793274236647464
1995-05-08 00:00:00-04:00,3.8580124378204346
1995-05-09 00:00:00-04:00,3.8580134466130245
1995-05-10 00:00:00-04:00,3.9432763802377804
1995-05-11 00:00:00-04:00,4.0285333779550365
1995-05-12 00:00:00-04:00,3.964587577613625
1995-05-15 00:00:00-04:00,3.964588850102526
1995-05-16 00:00:00-04:00,4.0285342083895275
1995-05-17 00:00:00-04:00,3.9859033951195335
1995-05-18 00:00:00-04:00,3.9645895332586574
1995-05-19 00:00:00-04:00,3.9006436920684315
1995-05-22 00:00:00-04:00,3.921959677895347
1995-05-23 00:00:00-04:00,3.9006438686492597
1995-05-24 00:00:00-04:00,4.007217700664814
1995-05-25 00:00:00-04:00,4.113793953177855
1995-05-26 00:00:00-04:00,4.135108633191174
1995-05-30 00:00:00-04:00,4.049847928971206
1995-05-31 00:00:00-04:00,4.135108947753906
1995-06-01 00:00:00-04:00,4.1351078853706005
1995-06-02 00:00:00-04:00,4.135108633191174
1995-06-05 00:00:00-04:00,4.092480659484863
1995-06-06 00:00:00-04:00,4.092478434244792
1995-06-07 00:00:00-04:00,4.049848369372788
1995-06-08 00:00:00-04:00,3.964587577613625
1995-06-09 00:00:00-04:00,3.9432725906372075
1995-06-12 00:00:00-04:00,3.9432736777740973
1995-06-13 00:00:00-04:00,3.8793295432961057
1995-06-14 00:00:00-04:00,3.9432725906372075
1995-06-15 00:00:00-04:00,3.9219584208662788
1995-06-16 00:00:00-04:00,3.9645896743942095
1995-06-19 00:00:00-04:00,3.8580146831470534
1995-06-20 00:00:00-04:00,3.9006445282383972
1995-06-21 00:00:00-04:00,3.64486292736259
1995-06-22 00:00:00-04:00,3.559604925097841
1995-06-23 00:00:00-04:00,3.538291103699628
1995-06-26 00:00:00-04:00,3.6022345643294487
1995-06-27 00:00:00-04:00,3.6235497590434345
1995-06-28 00:00:00-04:00,3.6661829096930365
1995-06-29 00:00:00-04:00,3.580919541508318
1995-06-30 00:00:00-04:00,3.5596044008759247
1995-07-03 00:00:00-04:00,3.6874944795881
1995-07-05 00:00:00-04:00,3.708807626419519
1995-07-06 00:00:00-04:00,3.580922842025757
1995-07-07 00:00:00-04:00,3.580922842025757
1995-07-10 00:00:00-04:00,3.60223408588549
1995-07-11 00:00:00-04:00,3.495659926443389
1995-07-12 00:00:00-04:00,3.5434465975988476
1995-07-13 00:00:00-04:00,3.6715180402744316
1995-07-14 00:00:00-04:00,3.5861355310463043
1995-07-17 00:00:00-04:00,3.543441829567184
1995-07-18 00:00:00-04:00,3.564788213142982
1995-07-19 00:00:00-04:00,3.5861387252807617
1995-07-20 00:00:00-04:00,3.586134250347431
1995-07-21 00:00:00-04:00,3.607481574454503
1995-07-24 00:00:00-04:00,3.6288295512975646
1995-07-25 00:00:00-04:00,3.692865658080441
1995-07-26 00:00:00-04:00,3.6928657537315326
1995-07-27 00:00:00-04:00,3.60748028755188
1995-07-28 00:00:00-04:00,3.6288295512975646
1995-07-31 00:00:00-04:00,3.650173993468974
1995-08-01 00:00:00-04:00,3.6715180402744316
1995-08-02 00:00:00-04:00,3.5647878646850586
1995-08-03 00:00:00-04:00,3.5434434399967305
1995-08-04 00:00:00-04:00,3.6501736640930176
1995-08-07 00:00:00-04:00,3.6715216636657715
1995-08-08 00:00:00-04:00,3.6928657537315326
1995-08-09 00:00:00-04:00,3.6928678891238045
1995-08-10 00:00:00-04:00,3.6288276207016175
1995-08-11 00:00:00-04:00,3.522099431823282
1995-08-14 00:00:00-04:00,3.650176916803632
1995-08-15 00:00:00-04:00,3.6288308529626754
1995-08-16 00:00:00-04:00,3.5647878646850586
1995-08-17 00:00:00-04:00,3.543442175938533
1995-08-18 00:00:00-04:00,3.6074818999781084
1995-08-21 00:00:00-04:00,3.735558180450704
1995-08-22 00:00:00-04:00,3.7142102031384483
1995-08-23 00:00:00-04:00,3.7995959281921388
1995-08-24 00:00:00-04:00,3.8209415362639865
1995-08-25 00:00:00-04:00,3.756903409957886
1995-08-28 00:00:00-04:00,3.75690227443889
1995-08-29 00:00:00-04:00,3.778248310089111
1995-08-30 00:00:00-04:00,3.8422864049837733
1995-08-31 00:00:00-04:00,3.8849799197207218
1995-09-01 00:00:00-04:00,3.9917094420388106
1995-09-05 00:00:00-04:00,4.0770922893069566
1995-09-06 00:00:00-04:00,4.077096025149027
1995-09-07 00:00:00-04:00,4.098438322235266
1995-09-08 00:00:00-04:00,4.1197890181290475
1995-09-11 00:00:00-04:00,4.0770922893069566
1995-09-12 00:00:00-04:00,4.098437623929251
1995-09-13 00:00:00-04:00,4.18382347736162
1995-09-14 00:00:00-04:00,4.119784944485396
1995-09-15 00:00:00-04:00,4.141133481805975
1995-09-18 00:00:00-04:00,4.205170727255356
1995-09-19 00:00:00-04:00,4.205167770385742
1995-09-20 00:00:00-04:00,4.183826287587483
1995-09-21 00:00:00-04:00,4.141130388091883
1995-09-22 00:00:00-04:00,4.119786008875421
1995-09-25 00:00:00-04:00,3.9917088830793226
1995-09-26 00:00:00-04:00,3.9490165828999895
1995-09-27 00:00:00-04:00,3.884979823361272
1995-09-28 00:00:00-04:00,3.970364284515381
1995-09-29 00:00:00-04:00,3.820941923678607
1995-10-02 00:00:00-04:00,3.735558913406713
1995-10-03 00:00:00-04:00,3.799594333817287
1995-10-04 00:00:00-04:00,3.8422864049837733
1995-10-05 00:00:00-04:00,3.842286417039774
1995-10-06 00:00:00-04:00,3.7569030375962846
1995-10-09 00:00:00-04:00,3.8209415362639865
1995-10-10 00:00:00-04:00,3.7355598322180814
1995-10-11 00:00:00-04:00,3.671519708912275
1995-10-12 00:00:00-04:00,3.6766792589967903
1995-10-13 00:00:00-04:00,3.7621818585584395
1995-10-16 00:00:00-04:00,3.783559860501971
1995-10-17 00:00:00-04:00,3.7194313434037296
1995-10-18 00:00:00-04:00,3.7194323199135915
1995-10-19 00:00:00-04:00,3.5698001384735103
1995-10-20 00:00:00-04:00,3.5911754398811153
1995-10-23 00:00:00-04:00,3.5270457118749614
1995-10-24 00:00:00-04:00,3.4201667882219144
1995-10-25 00:00:00-04:00,3.377413541275934
1995-10-26 00:00:00-04:00,3.249157330847734
1995-10-27 00:00:00-04:00,3.2277826926647086
1995-10-30 00:00:00-05:00,3.3774159779338717
1995-10-31 00:00:00-05:00,3.420165538787842
1995-11-01 00:00:00-05:00,3.420165538787842
1995-11-02 00:00:00-05:00,3.3987907457955275
1995-11-03 00:00:00-05:00,3.334663876947367
1995-11-06 00:00:00-05:00,3.398793068661052
1995-11-07 00:00:00-05:00,3.377416373780055
1995-11-08 00:00:00-05:00,3.3987895041704177
1995-11-09 00:00:00-05:00,3.4842966387730945
1995-11-10 00:00:00-05:00,3.44154518273226
1995-11-13 00:00:00-05:00,3.398791187379989
1995-11-14 00:00:00-05:00,3.4415441294136286
1995-11-15 00:00:00-05:00,3.3987895041704177
1995-11-16 00:00:00-05:00,3.441544240297273
1995-11-17 00:00:00-05:00,3.6980531215667725
1995-11-20 00:00:00-05:00,3.6980538583663574
1995-11-21 00:00:00-05:00,3.5697983719452084
1995-11-22 00:00:00-05:00,3.67667709196234
1995-11-24 00:00:00-05:00,3.69805571752436
1995-11-27 00:00:00-05:00,3.5697976551860213
1995-11-28 00:00:00-05:00,3.548423937388829
1995-11-29 00:00:00-05:00,3.6125522359402593
1995-11-30 00:00:00-05:00,3.6125520808356146
1995-12-01 00:00:00-05:00,3.5911751696343956
1995-12-04 00:00:00-05:00,3.633927583694458
1995-12-05 00:00:00-05:00,3.6339287009350087
1995-12-06 00:00:00-05:00,3.698052987285044
1995-12-07 00:00:00-05:00,3.7194313434037296
1995-12-08 00:00:00-05:00,3.7408050581895185
1995-12-11 00:00:00-05:00,3.9759446915159833
1995-12-12 00:00:00-05:00,4.0186967849731445
1995-12-13 00:00:00-05:00,4.018696655829748
1995-12-14 00:00:00-05:00,4.125576132819766
1995-12-15 00:00:00-05:00,4.2324571162462234
1995-12-18 00:00:00-05:00,4.061447238422813
1995-12-19 00:00:00-05:00,4.08282637350338
1995-12-20 00:00:00-05:00,4.146953019453454
1995-12-21 00:00:00-05:00,4.125576972961426
1995-12-22 00:00:00-05:00,4.168329065945482
1995-12-26 00:00:00-05:00,4.168329065945482
1995-12-27 00:00:00-05:00,4.125577193812321
1995-12-28 00:00:00-05:00,4.040071288946317
1995-12-29 00:00:00-05:00,4.2324571162462234
1996-01-02 00:00:00-05:00,4.1469531915126705
1996-01-03 00:00:00-05:00,4.189703467004586
1996-01-04 00:00:00-05:00,4.082823276519775
1996-01-05 00:00:00-05:00,4.061450319191844
1996-01-08 00:00:00-05:00,4.14695186031108
1996-01-09 00:00:00-05:00,4.2110810702045764
1996-01-10 00:00:00-05:00,4.1041993146167375
1996-01-11 00:00:00-05:00,3.9809444865664916
1996-01-12 00:00:00-05:00,3.9381404281944357
1996-01-15 00:00:00-05:00,4.023754575978155
1996-01-16 00:00:00-05:00,3.938142776489258
1996-01-17 00:00:00-05:00,3.938142776489258
1996-01-18 00:00:00-05:00,3.9381386318722282
1996-01-19 00:00:00-05:00,3.9809486762337065
1996-01-22 00:00:00-05:00,3.9595438698504832
1996-01-23 00:00:00-05:00,4.002347413913624
1996-01-24 00:00:00-05:00,3.980946809687513
1996-01-25 00:00:00-05:00,4.023752955386513
1996-01-26 00:00:00-05:00,4.045155629198602
1996-01-29 00:00:00-05:00,4.045155219733715
1996-01-30 00:00:00-05:00,4.109363931448348
1996-01-31 00:00:00-05:00,4.130767140021691
1996-02-01 00:00:00-05:00,4.194976020697972
1996-02-02 00:00:00-05:00,4.216378211975098
1996-02-05 00:00:00-05:00,4.173573017120361
1996-02-06 00:00:00-05:00,4.173572742877229
1996-02-07 00:00:00-05:00,4.173571966132339
1996-02-08 00:00:00-05:00,4.194976122692378
1996-02-09 00:00:00-05:00,4.2377799081802365
1996-02-12 00:00:00-05:00,4.280589071757485
1996-02-13 00:00:00-05:00,4.516019179903227
1996-02-14 00:00:00-05:00,4.3661998203822545
1996-02-15 00:00:00-05:00,4.473213886243725
1996-02-16 00:00:00-05:00,4.879867209328546
1996-02-20 00:00:00-05:00,4.537421226501465
1996-02-21 00:00:00-05:00,4.49461788354918
1996-02-22 00:00:00-05:00,4.580228805541992
1996-02-23 00:00:00-05:00,4.5588267104570255
1996-02-26 00:00:00-05:00,4.537423237805118
1996-02-27 00:00:00-05:00,4.473214418402216
1996-02-28 00:00:00-05:00,4.516019467609684
1996-02-29 00:00:00-05:00,4.409003338813782
1996-03-01 00:00:00-05:00,4.280585765838623
1996-03-04 00:00:00-05:00,4.280587942293375
1996-03-05 00:00:00-05:00,4.280585765838623
1996-03-06 00:00:00-05:00,4.2591842372243
1996-03-07 00:00:00-05:00,4.3661980628967285
1996-03-08 00:00:00-05:00,4.237781898460196
1996-03-11 00:00:00-05:00,4.237781147061265
1996-03-12 00:00:00-05:00,4.194974899291992
1996-03-13 00:00:00-05:00,4.194976122692378
1996-03-14 00:00:00-05:00,4.280587942293375
1996-03-15 00:00:00-05:00,4.280589290500917
1996-03-18 00:00:00-05:00,4.173571677768932
1996-03-19 00:00:00-05:00,4.36619863838985
1996-03-20 00:00:00-05:00,4.3661996379043115
1996-03-21 00:00:00-05:00,4.237780765611299
1996-03-22 00:00:00-05:00,4.216378894219031
1996-03-25 00:00:00-05:00,4.152169944041997
1996-03-26 00:00:00-05:00,4.301990882004842
1996-03-27 00:00:00-05:00,4.451812634627784
1996-03-28 00:00:00-05:00,4.473215618043998
1996-03-29 00:00:00-05:00,4.51602029800415
1996-04-01 00:00:00-05:00,4.51601999051103
1996-04-02 00:00:00-05:00,4.601632645141044
1996-04-03 00:00:00-05:00,4.64443588686419
1996-04-04 00:00:00-05:00,4.7514526540582835
1996-04-08 00:00:00-04:00,4.687241169290805
1996-04-09 00:00:00-04:00,4.665840894525702
1996-04-10 00:00:00-04:00,4.665838817218402
1996-04-11 00:00:00-04:00,4.713744640350342
1996-04-12 00:00:00-04:00,4.713743997851448
1996-04-15 00:00:00-04:00,4.520906956107528
1996-04-16 00:00:00-04:00,4.649463552015799
1996-04-17 00:00:00-04:00,4.628039172876661
1996-04-18 00:00:00-04:00,4.585185502704822
1996-04-19 00:00:00-04:00,4.456630688877732
1996-04-22 00:00:00-04:00,4.563762148585888
1996-04-23 00:00:00-04:00,4.756595516636361
1996-04-24 00:00:00-04:00,4.735167910257975
1996-04-25 00:00:00-04:00,4.778020759960553
1996-04-26 00:00:00-04:00,4.713745820357503
1996-04-29 00:00:00-04:00,4.606615233531197
1996-04-30 00:00:00-04:00,4.670889723975703
1996-05-01 00:00:00-04:00,4.542334171441885
1996-05-02 00:00:00-04:00,4.49948263168335
1996-05-03 00:00:00-04:00,4.542333126068115
1996-05-06 00:00:00-04:00,4.5209087394532705
1996-05-07 00:00:00-04:00,4.5423337562599375
1996-05-08 00:00:00-04:00,4.285218238830566
1996-05-09 00:00:00-04:00,4.285219136406393
1996-05-10 00:00:00-04:00,4.370924751357277
1996-05-13 00:00:00-04:00,4.285218238830566
1996-05-14 00:00:00-04:00,4.28521935709842
1996-05-15 00:00:00-04:00,4.242368141023239
1996-05-16 00:00:00-04:00,4.3494971047586475
1996-05-17 00:00:00-04:00,4.285218238830566
1996-05-20 00:00:00-04:00,4.285219972356787
1996-05-21 00:00:00-04:00,4.328071066476767
1996-05-22 00:00:00-04:00,4.413777543948247
1996-05-23 00:00:00-04:00,4.49948263168335
1996-05-24 00:00:00-04:00,4.456629753112793
1996-05-28 00:00:00-04:00,4.478053727196258
1996-05-29 00:00:00-04:00,4.3923496148165535
1996-05-30 00:00:00-04:00,4.370924751357277
1996-05-31 00:00:00-04:00,4.3494986496349375
1996-06-03 00:00:00-04:00,4.328072547912598
1996-06-04 00:00:00-04:00,4.3923496148165535
1996-06-05 00:00:00-04:00,4.413775444030762
1996-06-06 00:00:00-04:00,4.413775387094982
1996-06-07 00:00:00-04:00,4.263793872495003
1996-06-10 00:00:00-04:00,4.3494986496349375
1996-06-11 00:00:00-04:00,4.328072547912598
1996-06-12 00:00:00-04:00,4.328071010646536
1996-06-13 00:00:00-04:00,4.30664459141818
1996-06-14 00:00:00-04:00,4.242367163527435
1996-06-17 00:00:00-04:00,4.178090476498162
1996-06-18 00:00:00-04:00,4.113811393058737
1996-06-19 00:00:00-04:00,4.135238266482796
1996-06-20 00:00:00-04:00,4.178090572357178
1996-06-21 00:00:00-04:00,4.1780902817845345
1996-06-24 00:00:00-04:00,4.1352380737662315
1996-06-25 00:00:00-04:00,4.135236679599974
1996-06-26 00:00:00-04:00,4.263793830601674
1996-06-27 00:00:00-04:00,4.520906956107528
1996-06-28 00:00:00-04:00,4.670890812382035
1996-07-01 00:00:00-04:00,4.778019518299676
1996-07-02 00:00:00-04:00,4.906576835747921
1996-07-03 00:00:00-04:00,4.885150736028498
1996-07-05 00:00:00-04:00,4.9494282902566145
1996-07-08 00:00:00-04:00,4.970855712890625
1996-07-09 00:00:00-04:00,4.970856475830079
1996-07-10 00:00:00-04:00,5.142264090293695
1996-07-11 00:00:00-04:00,5.125923498817112
1996-07-12 00:00:00-04:00,4.911447525024414
1996-07-15 00:00:00-04:00,4.890002727508545
1996-07-16 00:00:00-04:00,4.847107587286004
1996-07-17 00:00:00-04:00,4.589738845825195
1996-07-18 00:00:00-04:00,4.6326343625090844
1996-07-19 00:00:00-04:00,4.589738845825195
1996-07-22 00:00:00-04:00,4.589738958819782
1996-07-23 00:00:00-04:00,4.546845182366328
1996-07-24 00:00:00-04:00,4.632630600119537
1996-07-25 00:00:00-04:00,4.546842659220976
1996-07-26 00:00:00-04:00,4.396710133438476
1996-07-29 00:00:00-04:00,4.461053371429443
1996-07-30 00:00:00-04:00,4.439605703448305
1996-07-31 00:00:00-04:00,4.332368750572204
1996-08-01 00:00:00-04:00,4.289474109611889
1996-08-02 00:00:00-04:00,4.332370721199662
1996-08-05 00:00:00-04:00,4.439607310634089
1996-08-06 00:00:00-04:00,4.525396906713924
1996-08-07 00:00:00-04:00,4.632634515631689
1996-08-08 00:00:00-04:00,4.696976661682129
1996-08-09 00:00:00-04:00,4.718423887740734
1996-08-12 00:00:00-04:00,4.632630600119537
1996-08-13 00:00:00-04:00,4.56828850845121
1996-08-14 00:00:00-04:00,4.54684428541873
1996-08-15 00:00:00-04:00,4.546842769340232
1996-08-16 00:00:00-04:00,4.589739599893259
1996-08-19 00:00:00-04:00,4.568292294779131
1996-08-20 00:00:00-04:00,4.675526998661183
1996-08-21 00:00:00-04:00,4.611186421533145
1996-08-22 00:00:00-04:00,4.568291664123535
1996-08-23 00:00:00-04:00,4.525393780672325
1996-08-26 00:00:00-04:00,4.54684428541873
1996-08-27 00:00:00-04:00,4.546842859341548
1996-08-28 00:00:00-04:00,4.4610550000471765
1996-08-29 00:00:00-04:00,4.439607620239258
1996-08-30 00:00:00-04:00,4.418160240431338
1996-09-03 00:00:00-04:00,4.461053939092727
1996-09-04 00:00:00-04:00,4.482502379855096
1996-09-05 00:00:00-04:00,4.418159008026123
1996-09-06 00:00:00-04:00,4.418160240431338
1996-09-09 00:00:00-04:00,4.439605999451417
1996-09-10 00:00:00-04:00,4.4610550000471765
1996-09-11 00:00:00-04:00,4.43960656438555
1996-09-12 00:00:00-04:00,4.482500444544424
1996-09-13 00:00:00-04:00,4.3323670698671926
1996-09-16 00:00:00-04:00,4.203688080777827
1996-09-17 00:00:00-04:00,4.032106399536133
1996-09-18 00:00:00-04:00,4.053553014993668
1996-09-19 00:00:00-04:00,4.096448512892649
1996-09-20 00:00:00-04:00,4.13934326171875
1996-09-23 00:00:00-04:00,4.160790636131801
1996-09-24 00:00:00-04:00,4.117892795138889
1996-09-25 00:00:00-04:00,4.053553014993668
1996-09-26 00:00:00-04:00,4.13934081427905
1996-09-27 00:00:00-04:00,4.160790636131801
1996-09-30 00:00:00-04:00,4.117895231774105
1996-10-01 00:00:00-04:00,4.289474109611889
1996-10-02 00:00:00-04:00,4.332368948880364
1996-10-03 00:00:00-04:00,4.375262815560868
1996-10-04 00:00:00-04:00,4.353815448817922
1996-10-07 00:00:00-04:00,4.310919989609137
1996-10-08 00:00:00-04:00,4.396711061982548
1996-10-09 00:00:00-04:00,4.375263591804127
1996-10-10 00:00:00-04:00,4.273103860517343
1996-10-11 00:00:00-04:00,4.122793579101563
1996-10-14 00:00:00-04:00,4.079849120767359
1996-10-15 00:00:00-04:00,4.036902139584223
1996-10-16 00:00:00-04:00,4.122795691856972
1996-10-17 00:00:00-04:00,4.230157995223999
1996-10-18 00:00:00-04:00,4.294575896917605
1996-10-21 00:00:00-04:00,4.358995294570923
1996-10-22 00:00:00-04:00,4.294576066913026
1996-10-23 00:00:00-04:00,4.230158093074957
1996-10-24 00:00:00-04:00,4.144268549594682
1996-10-25 00:00:00-04:00,4.187212649302267
1996-10-28 00:00:00-05:00,4.23016016299908
1996-10-29 00:00:00-05:00,4.1872130311685165
1996-10-30 00:00:00-05:00,4.230157258463842
1996-10-31 00:00:00-05:00,4.380467988912342
1996-11-01 00:00:00-05:00,4.4234154592106
1996-11-04 00:00:00-05:00,4.294576066913026
1996-11-05 00:00:00-05:00,4.294577076207453
1996-11-06 00:00:00-05:00,4.273101631475955
1996-11-07 00:00:00-05:00,4.122793674468994
1996-11-08 00:00:00-05:00,4.165740143829191
1996-11-11 00:00:00-05:00,4.251630878448487
1996-11-12 00:00:00-05:00,4.337522411346436
1996-11-13 00:00:00-05:00,4.316051006317139
1996-11-14 00:00:00-05:00,4.316049148540686
1996-11-15 00:00:00-05:00,4.316049528121948
1996-11-18 00:00:00-05:00,4.294576644897461
1996-11-19 00:00:00-05:00,4.294575947086986
1996-11-20 00:00:00-05:00,4.638143108737085
1996-11-21 00:00:00-05:00,4.6596138049971385
1996-11-22 00:00:00-05:00,4.573724263452093
1996-11-25 00:00:00-05:00,4.831398963928223
1996-11-26 00:00:00-05:00,4.7884529590606695
1996-11-27 00:00:00-05:00,4.681089708738238
1996-11-29 00:00:00-05:00,4.5951981119146925
1996-12-02 00:00:00-05:00,4.595197010040283
1996-12-03 00:00:00-05:00,4.530778174047117
1996-12-04 00:00:00-05:00,4.595198383698096
1996-12-05 00:00:00-05:00,4.509303682255296
1996-12-06 00:00:00-05:00,4.5093053320179814
1996-12-09 00:00:00-05:00,4.40194034576416
1996-12-10 00:00:00-05:00,4.5093068251243
1996-12-11 00:00:00-05:00,4.466359317892849
1996-12-12 00:00:00-05:00,4.38046817779541
1996-12-13 00:00:00-05:00,4.294576644897461
1996-12-16 00:00:00-05:00,4.337523028181104
1996-12-17 00:00:00-05:00,4.380468036817468
1996-12-18 00:00:00-05:00,4.466359518106701
1996-12-19 00:00:00-05:00,4.4234137535095215
1996-12-20 00:00:00-05:00,4.380467988912342
1996-12-23 00:00:00-05:00,4.5307782145514
1996-12-24 00:00:00-05:00,4.4878324494845625
1996-12-26 00:00:00-05:00,4.466359566951144
1996-12-27 00:00:00-05:00,4.444885058223077
1996-12-30 00:00:00-05:00,4.552251243591309
1996-12-31 00:00:00-05:00,4.5093050805648955
1997-01-02 00:00:00-05:00,4.294577467865145
1997-01-03 00:00:00-05:00,4.251630878448487
1997-01-06 00:00:00-05:00,4.316049148540686
1997-01-07 00:00:00-05:00,4.337521655886781
1997-01-08 00:00:00-05:00,4.3589959144592285
1997-01-09 00:00:00-05:00,4.358995106613752
1997-01-10 00:00:00-05:00,4.380469228180361
1997-01-13 00:00:00-05:00,4.557384490966797
1997-01-14 00:00:00-05:00,4.557387070428757
1997-01-15 00:00:00-05:00,4.514392518319225
1997-01-16 00:00:00-05:00,4.535887394311294
1997-01-17 00:00:00-05:00,4.578884179251534
1997-01-20 00:00:00-05:00,4.535890342003137
1997-01-21 00:00:00-05:00,4.256426037574301
1997-01-22 00:00:00-05:00,4.213431867293126
1997-01-23 00:00:00-05:00,4.170438184236225
1997-01-24 00:00:00-05:00,4.084451059815745
1997-01-27 00:00:00-05:00,4.084449955757629
1997-01-28 00:00:00-05:00,4.084449955757629
1997-01-29 00:00:00-05:00,4.062953726105068
1997-01-30 00:00:00-05:00,3.9554685908842853
1997-01-31 00:00:00-05:00,3.9984629154205322
1997-02-03 00:00:00-05:00,4.041456227745514
1997-02-04 00:00:00-05:00,3.933969160372561
1997-02-05 00:00:00-05:00,3.826481589954861
1997-02-06 00:00:00-05:00,3.8694793722602756
1997-02-07 00:00:00-05:00,3.8694791793823238
1997-02-10 00:00:00-05:00,3.65451002713316
1997-02-11 00:00:00-05:00,3.4825304703540114
1997-02-12 00:00:00-05:00,3.59001547486119
1997-02-13 00:00:00-05:00,3.740495165424234
1997-02-14 00:00:00-05:00,3.697503498622349
1997-02-18 00:00:00-05:00,3.6760038694686434
1997-02-19 00:00:00-05:00,3.633009672164917
1997-02-20 00:00:00-05:00,3.568519927516128
1997-02-21 00:00:00-05:00,3.547023705073765
1997-02-24 00:00:00-05:00,3.611513080367123
1997-02-25 00:00:00-05:00,3.5900179666975522
1997-02-26 00:00:00-05:00,3.5470209298310458
1997-02-27 00:00:00-05:00,3.482533084679835
1997-02-28 00:00:00-05:00,3.5040267367421847
1997-03-03 00:00:00-05:00,3.4395388490665035
1997-03-04 00:00:00-05:00,3.4610333686851598
1997-03-05 00:00:00-05:00,3.5685168911596974
1997-03-06 00:00:00-05:00,3.590015071177343
1997-03-07 00:00:00-05:00,3.65450677081678
1997-03-10 00:00:00-05:00,3.6760025809955046
1997-03-11 00:00:00-05:00,3.7190006119864325
1997-03-12 00:00:00-05:00,3.5900170355132133
1997-03-13 00:00:00-05:00,3.547019801453916
1997-03-14 00:00:00-05:00,3.611515045166015
1997-03-17 00:00:00-05:00,3.5900139808654785
1997-03-18 00:00:00-05:00,3.611515045166015
1997-03-19 00:00:00-05:00,3.6115125735130533
1997-03-20 00:00:00-05:00,3.63301100730896
1997-03-21 00:00:00-05:00,3.6760038694686434
1997-03-24 00:00:00-05:00,3.6330121585300987
1997-03-25 00:00:00-05:00,3.633010182035975
1997-03-26 00:00:00-05:00,3.59001547486119
1997-03-27 00:00:00-05:00,3.6545052499828223
1997-03-31 00:00:00-05:00,3.590015978698271
1997-04-01 00:00:00-05:00,3.5685208184378485
1997-04-02 00:00:00-05:00,3.611513441535318
1997-04-03 00:00:00-05:00,3.396542403348692
1997-04-04 00:00:00-05:00,3.375044610593226
1997-04-07 00:00:00-04:00,3.3320523588449364
1997-04-08 00:00:00-04:00,3.2030689245989534
1997-04-09 00:00:00-04:00,3.2460644245147705
1997-04-10 00:00:00-04:00,3.224564502979147
1997-04-11 00:00:00-04:00,3.122247781072344
1997-04-14 00:00:00-04:00,3.0576487672740016
1997-04-15 00:00:00-04:00,3.1222484373066526
1997-04-16 00:00:00-04:00,3.1437812619561316
1997-04-17 00:00:00-04:00,3.2299117462055102
1997-04-18 00:00:00-04:00,3.143780500710416
1997-04-21 00:00:00-04:00,3.2083795070648193
1997-04-22 00:00:00-04:00,3.2299125895780674
1997-04-23 00:00:00-04:00,3.2945115187310225
1997-04-24 00:00:00-04:00,3.2729775365193685
1997-04-25 00:00:00-04:00,3.272977236154917
1997-04-28 00:00:00-04:00,3.208379374610053
1997-04-29 00:00:00-04:00,3.1222483594166603
1997-04-30 00:00:00-04:00,3.2729777521735066
1997-05-01 00:00:00-04:00,3.229912042617798
1997-05-02 00:00:00-04:00,3.2514446617720965
1997-05-05 00:00:00-04:00,3.3591084753631786
1997-05-06 00:00:00-04:00,3.359108660298009
1997-05-07 00:00:00-04:00,3.3591095053631324
1997-05-08 00:00:00-04:00,3.48830379922706
1997-05-09 00:00:00-04:00,3.617501414905895
1997-05-12 00:00:00-04:00,3.61750047055283
1997-05-13 00:00:00-04:00,3.7036292652883933
1997-05-14 00:00:00-04:00,3.5959694612593878
1997-05-15 00:00:00-04:00,3.617500236235469
1997-05-16 00:00:00-04:00,3.5529031753540035
1997-05-19 00:00:00-04:00,3.5529020177312645
1997-05-20 00:00:00-04:00,3.574434757232666
1997-05-21 00:00:00-04:00,3.5529020177312645
1997-05-22 00:00:00-04:00,3.6175020217895506
1997-05-23 00:00:00-04:00,3.6820992830942365
1997-05-27 00:00:00-04:00,3.6820996544577858
1997-05-28 00:00:00-04:00,3.682098627090454
1997-05-29 00:00:00-04:00,3.6821002721786495
1997-05-30 00:00:00-04:00,3.6390331460718524
1997-06-02 00:00:00-04:00,3.682100466319493
1997-06-03 00:00:00-04:00,3.6174983521421513
1997-06-04 00:00:00-04:00,3.595968668388598
1997-06-05 00:00:00-04:00,3.574434757232666
1997-06-06 00:00:00-04:00,3.5959693449406536
1997-06-09 00:00:00-04:00,3.4667734106381736
1997-06-10 00:00:00-04:00,3.3806413270925217
1997-06-11 00:00:00-04:00,3.2729775365193685
1997-06-12 00:00:00-04:00,3.229913253657865
1997-06-13 00:00:00-04:00,3.294510337867235
1997-06-16 00:00:00-04:00,3.3160430851735567
1997-06-17 00:00:00-04:00,3.251445869604747
1997-06-18 00:00:00-04:00,3.337577028779794
1997-06-19 00:00:00-04:00,3.2729787637066368
1997-06-20 00:00:00-04:00,3.2729787637066368
1997-06-23 00:00:00-04:00,3.272976959643721
1997-06-24 00:00:00-04:00,3.186846627129449
1997-06-25 00:00:00-04:00,3.122248384687636
1997-06-26 00:00:00-04:00,3.0791815050717055
1997-06-27 00:00:00-04:00,3.143780500710416
1997-06-30 00:00:00-04:00,3.1653124562625226
1997-07-01 00:00:00-04:00,3.122247716654902
1997-07-02 00:00:00-04:00,3.2191464684226294
1997-07-03 00:00:00-04:00,3.165313558480174
1997-07-07 00:00:00-04:00,3.1437808131843905
1997-07-08 00:00:00-04:00,3.10071424286941
1997-07-09 00:00:00-04:00,3.1007156372070312
1997-07-10 00:00:00-04:00,3.10071424286941
1997-07-11 00:00:00-04:00,3.105856755487748
1997-07-14 00:00:00-04:00,3.267620713118739
1997-07-15 00:00:00-04:00,3.2784032326240045
1997-07-16 00:00:00-04:00,3.32154234145817
1997-07-17 00:00:00-04:00,3.343110646841661
1997-07-18 00:00:00-04:00,3.4185956811148026
1997-07-21 00:00:00-04:00,3.3754616517287035
1997-07-22 00:00:00-04:00,3.364677336908156
1997-07-23 00:00:00-04:00,3.332323976082377
1997-07-24 00:00:00-04:00,3.2891872419805006
1997-07-25 00:00:00-04:00,3.343110646841661
1997-07-28 00:00:00-04:00,3.407813240677024
1997-07-29 00:00:00-04:00,3.4401641081249905
1997-07-30 00:00:00-04:00,3.407813460738571
1997-07-31 00:00:00-04:00,3.4833047492372478
1997-08-01 00:00:00-04:00,3.537225875386431
1997-08-04 00:00:00-04:00,3.5156564368857994
1997-08-05 00:00:00-04:00,3.612714108529982
1997-08-06 00:00:00-04:00,3.9362396130690707
1997-08-07 00:00:00-04:00,4.011732131242752
1997-08-08 00:00:00-04:00,4.098007212514462
1997-08-11 00:00:00-04:00,3.9685937433294907
1997-08-12 00:00:00-04:00,3.9685936620679954
1997-08-13 00:00:00-04:00,3.8715362238141022
1997-08-14 00:00:00-04:00,3.9793776299927264
1997-08-15 00:00:00-04:00,3.9362402857184744
1997-08-18 00:00:00-04:00,3.8499665970212957
1997-08-19 00:00:00-04:00,3.8499650013380946
1997-08-20 00:00:00-04:00,3.9470279994218243
1997-08-21 00:00:00-04:00,3.925456092092726
1997-08-22 00:00:00-04:00,3.839180785648072
1997-08-25 00:00:00-04:00,3.925456523895264
1997-08-26 00:00:00-04:00,3.90388904410422
1997-08-27 00:00:00-04:00,3.968596458435058
1997-08-28 00:00:00-04:00,3.968593781994235
1997-08-29 00:00:00-04:00,4.044084196881309
1997-09-02 00:00:00-04:00,4.141141124607362
1997-09-03 00:00:00-04:00,4.184278305591804
1997-09-04 00:00:00-04:00,4.292120417770074
1997-09-05 00:00:00-04:00,4.205847641090294
1997-09-08 00:00:00-04:00,4.119573414010346
1997-09-09 00:00:00-04:00,4.022514249396136
1997-09-10 00:00:00-04:00,4.098002705188083
1997-09-11 00:00:00-04:00,4.098007212514462
1997-09-12 00:00:00-04:00,3.936241115293195
1997-09-15 00:00:00-04:00,4.011729139895053
1997-09-16 00:00:00-04:00,4.022514820098877
1997-09-17 00:00:00-04:00,4.033299076101168
1997-09-18 00:00:00-04:00,3.9470279994218243
1997-09-19 00:00:00-04:00,3.9685911986966547
1997-09-22 00:00:00-04:00,3.8931054396172096
1997-09-23 00:00:00-04:00,3.903888081456279
1997-09-24 00:00:00-04:00,3.882320004124795
1997-09-25 00:00:00-04:00,3.957812228928441
1997-09-26 00:00:00-04:00,3.9254566389047683
1997-09-29 00:00:00-04:00,3.9362407451147563
1997-09-30 00:00:00-04:00,3.8823192575004666
1997-10-01 00:00:00-04:00,3.8823192575004666
1997-10-02 00:00:00-04:00,3.8283980861097486
1997-10-03 00:00:00-04:00,3.839180785648072
1997-10-06 00:00:00-04:00,3.8823185224790833
1997-10-07 00:00:00-04:00,3.968593525046579
1997-10-08 00:00:00-04:00,4.000946409715329
1997-10-09 00:00:00-04:00,3.903886079788208
1997-10-10 00:00:00-04:00,3.9090706586837767
1997-10-13 00:00:00-04:00,3.9306669341785283
1997-10-14 00:00:00-04:00,3.9090709268710038
1997-10-15 00:00:00-04:00,3.811886640434915
1997-10-16 00:00:00-04:00,3.844280194013547
1997-10-17 00:00:00-04:00,3.779490593540875
1997-10-20 00:00:00-04:00,3.7146988871369855
1997-10-21 00:00:00-04:00,3.8550780405655747
1997-10-22 00:00:00-04:00,3.909071578354132
1997-10-23 00:00:00-04:00,3.876675382089079
1997-10-24 00:00:00-04:00,3.8658774172673462
1997-10-27 00:00:00-05:00,3.9198690304713963
1997-10-28 00:00:00-05:00,3.4555339525113293
1997-10-29 00:00:00-05:00,3.585116564169438
1997-10-30 00:00:00-05:00,3.412340814549624
1997-10-31 00:00:00-05:00,3.5743171715948634
1997-11-03 00:00:00-05:00,3.649905670423312
1997-11-04 00:00:00-05:00,3.67150491511328
1997-11-05 00:00:00-05:00,3.6499078273773193
1997-11-06 00:00:00-05:00,3.6283088707062134
1997-11-07 00:00:00-05:00,3.5095267295837402
1997-11-10 00:00:00-05:00,3.628309507627745
1997-11-11 00:00:00-05:00,3.5959142811896263
1997-11-12 00:00:00-05:00,3.4771298880832804
1997-11-13 00:00:00-05:00,3.43393601021966
1997-11-14 00:00:00-05:00,3.358346202570921
1997-11-17 00:00:00-05:00,3.412339397098707
1997-11-18 00:00:00-05:00,3.47712925981028
1997-11-19 00:00:00-05:00,3.3799436971163135
1997-11-20 00:00:00-05:00,3.3691450814220394
1997-11-21 00:00:00-05:00,3.4663298942148684
1997-11-24 00:00:00-05:00,3.4339357279828673
1997-11-25 00:00:00-05:00,3.455532547695185
1997-11-26 00:00:00-05:00,3.2935555249649955
1997-11-28 00:00:00-05:00,3.271959360310289
1997-12-01 00:00:00-05:00,3.336749815300807
1997-12-02 00:00:00-05:00,3.282755458315607
1997-12-03 00:00:00-05:00,3.2719581608820447
1997-12-04 00:00:00-05:00,3.22876597078223
1997-12-05 00:00:00-05:00,3.282756780568474
1997-12-08 00:00:00-05:00,3.3151517585643284
1997-12-09 00:00:00-05:00,3.3259520890282803
1997-12-10 00:00:00-05:00,3.2719573810988782
1997-12-11 00:00:00-05:00,3.2935555249649955
1997-12-12 00:00:00-05:00,3.2827587127685547
1997-12-15 00:00:00-05:00,3.3043549975410835
1997-12-16 00:00:00-05:00,3.2935546787039747
1997-12-17 00:00:00-05:00,3.3367473988305956
1997-12-18 00:00:00-05:00,3.423137157866098
1997-12-19 00:00:00-05:00,3.3259506010932554
1997-12-22 00:00:00-05:00,3.3907423123069433
1997-12-23 00:00:00-05:00,3.4771305006983866
1997-12-24 00:00:00-05:00,3.455533220724094
1997-12-26 00:00:00-05:00,3.498726606369019
1997-12-29 00:00:00-05:00,3.541923377127458
1997-12-30 00:00:00-05:00,3.520324468612671
1997-12-31 00:00:00-05:00,3.5419202258804905
1998-01-02 00:00:00-05:00,3.639108311046254
1998-01-05 00:00:00-05:00,3.5635167136788364
1998-01-06 00:00:00-05:00,3.3691447434152004
1998-01-07 00:00:00-05:00,3.3907415678824537
1998-01-08 00:00:00-05:00,3.412337216734886
1998-01-09 00:00:00-05:00,3.45553463795146
1998-01-12 00:00:00-05:00,3.2611590589134436
1998-01-13 00:00:00-05:00,3.331124876118914
1998-01-14 00:00:00-05:00,3.428462505340576
1998-01-15 00:00:00-05:00,3.4609076976776123
1998-01-16 00:00:00-05:00,3.417647458888866
1998-01-20 00:00:00-05:00,3.5366168043634914
1998-01-21 00:00:00-05:00,3.601508897192338
1998-01-22 00:00:00-05:00,3.579880030705379
1998-01-23 00:00:00-05:00,3.514986520276922
1998-01-26 00:00:00-05:00,3.417649577998515
1998-01-27 00:00:00-05:00,3.4068332029425576
1998-01-28 00:00:00-05:00,3.47172474861145
1998-01-29 00:00:00-05:00,3.4933548393072904
1998-01-30 00:00:00-05:00,3.5149843804538246
1998-02-02 00:00:00-05:00,3.4825393845958095
1998-02-03 00:00:00-05:00,3.352756181340309
1998-02-04 00:00:00-05:00,3.3960167787693165
1998-02-05 00:00:00-05:00,3.5474333763122563
1998-02-06 00:00:00-05:00,3.579878290494283
1998-02-09 00:00:00-05:00,3.6339548815478078
1998-02-10 00:00:00-05:00,3.5906935139103338
1998-02-11 00:00:00-05:00,3.623139861869232
1998-02-12 00:00:00-05:00,3.5798784903842265
1998-02-13 00:00:00-05:00,3.5474324617704722
1998-02-17 00:00:00-05:00,3.5906939222521173
1998-02-18 00:00:00-05:00,3.46090913550254
1998-02-19 00:00:00-05:00,3.5366173249594173
1998-02-20 00:00:00-05:00,3.4933548393072904
1998-02-23 00:00:00-05:00,3.482540490858981
1998-02-24 00:00:00-05:00,3.4609088191279658
1998-02-25 00:00:00-05:00,3.525800859486615
1998-02-26 00:00:00-05:00,3.5474309949396634
1998-02-27 00:00:00-05:00,3.6339552360668517
1998-03-02 00:00:00-05:00,3.720478755405971
1998-03-03 00:00:00-05:00,3.785369086400264
1998-03-04 00:00:00-05:00,3.8502634546973487
1998-03-05 00:00:00-05:00,3.785369594322576
1998-03-06 00:00:00-05:00,3.774554369730108
1998-03-09 00:00:00-05:00,3.7096614945365722
1998-03-10 00:00:00-05:00,3.579877326215817
1998-03-11 00:00:00-05:00,3.6555844864859015
1998-03-12 00:00:00-05:00,3.7529225558802364
1998-03-13 00:00:00-05:00,3.828629433775747
1998-03-16 00:00:00-05:00,3.828631079898161
1998-03-17 00:00:00-05:00,3.6339548037384666
1998-03-18 00:00:00-05:00,3.5690631743135124
1998-03-19 00:00:00-05:00,3.7421072171024834
1998-03-20 00:00:00-05:00,3.7745536355411304
1998-03-23 00:00:00-05:00,4.153091751901727
1998-03-24 00:00:00-05:00,4.088197899646446
1998-03-25 00:00:00-05:00,3.9584170087524084
1998-03-26 00:00:00-05:00,4.012493743844654
1998-03-27 00:00:00-05:00,3.9800468381944594
1998-03-30 00:00:00-05:00,3.95841383934021
1998-03-31 00:00:00-05:00,4.001676438614848
1998-04-01 00:00:00-05:00,3.9367850073452653
1998-04-02 00:00:00-05:00,4.023305979642001
1998-04-03 00:00:00-05:00,4.001675302332098
1998-04-06 00:00:00-04:00,4.077382695061082
1998-04-07 00:00:00-04:00,3.990861920600242
1998-04-08 00:00:00-04:00,4.044936678920012
1998-04-09 00:00:00-04:00,3.980044687826802
1998-04-13 00:00:00-04:00,4.244961000838369
1998-04-14 00:00:00-04:00,4.060868273444354
1998-04-15 00:00:00-04:00,4.050040145194967
1998-04-16 00:00:00-04:00,4.060869536748746
1998-04-17 00:00:00-04:00,4.039210762115235
1998-04-20 00:00:00-04:00,4.07169771194458
1998-04-21 00:00:00-04:00,4.07169771194458
1998-04-22 00:00:00-04:00,4.071696812397724
1998-04-23 00:00:00-04:00,4.050038448969523
1998-04-24 00:00:00-04:00,3.898432731628418
1998-04-27 00:00:00-04:00,3.8876073360443115
1998-04-28 00:00:00-04:00,3.9092626153606256
1998-04-29 00:00:00-04:00,3.995897311231364
1998-04-30 00:00:00-04:00,4.017552345194281
1998-05-01 00:00:00-04:00,4.028382301330566
1998-05-04 00:00:00-04:00,4.028380888861578
1998-05-05 00:00:00-04:00,4.006726301234702
1998-05-06 00:00:00-04:00,3.9742363500995794
1998-05-07 00:00:00-04:00,3.8442883397756
1998-05-08 00:00:00-04:00,3.887603751818339
1998-05-11 00:00:00-04:00,3.9309204225780583
1998-05-12 00:00:00-04:00,3.8767779889431866
1998-05-13 00:00:00-04:00,3.8551181413941835
1998-05-14 00:00:00-04:00,3.7468282162786246
1998-05-15 00:00:00-04:00,3.6601972863787697
1998-05-18 00:00:00-04:00,3.638539760070439
1998-05-19 00:00:00-04:00,3.6818548150964685
1998-05-20 00:00:00-04:00,3.5952233700525196
1998-05-21 00:00:00-04:00,3.6385403543800745
1998-05-22 00:00:00-04:00,3.616882376080193
1998-05-26 00:00:00-04:00,3.6277080699801445
1998-05-27 00:00:00-04:00,3.4761016686757404
1998-05-28 00:00:00-04:00,3.4002995043992996
1998-05-29 00:00:00-04:00,3.5085921126145583
1998-06-01 00:00:00-04:00,3.4869328146853285
1998-06-02 00:00:00-04:00,3.4544460773468018
1998-06-03 00:00:00-04:00,3.454447525102388
1998-06-04 00:00:00-04:00,3.465276514209292
1998-06-05 00:00:00-04:00,3.465276514209292
1998-06-08 00:00:00-04:00,3.443617196711697
1998-06-09 00:00:00-04:00,3.367813884043226
1998-06-10 00:00:00-04:00,3.2920120674491726
1998-06-11 00:00:00-04:00,3.2486954381910422
1998-06-12 00:00:00-04:00,3.194552483527284
1998-06-15 00:00:00-04:00,3.2378669813887715
1998-06-16 00:00:00-04:00,3.216209008269114
1998-06-17 00:00:00-04:00,3.1945511688755506
1998-06-18 00:00:00-04:00,3.2811823925729526
1998-06-19 00:00:00-04:00,3.1945517233439853
1998-06-22 00:00:00-04:00,3.2053802539775895
1998-06-23 00:00:00-04:00,3.3461562316619493
1998-06-24 00:00:00-04:00,3.476104469860301
1998-06-25 00:00:00-04:00,3.4869341366107647
1998-06-26 00:00:00-04:00,3.5410771678995205
1998-06-29 00:00:00-04:00,3.5085892975330353
1998-06-30 00:00:00-04:00,3.465274292745708
1998-07-01 00:00:00-04:00,3.5519078710804814
1998-07-02 00:00:00-04:00,3.4869334557477165
1998-07-06 00:00:00-04:00,3.497762015620743
1998-07-07 00:00:00-04:00,3.454446412049807
1998-07-08 00:00:00-04:00,3.3894719715359845
1998-07-09 00:00:00-04:00,3.4111304695789633
1998-07-10 00:00:00-04:00,3.3894731351081897
1998-07-13 00:00:00-04:00,3.2538673188212854
1998-07-14 00:00:00-04:00,3.1128668280591736
1998-07-15 00:00:00-04:00,3.167097523652718
1998-07-16 00:00:00-04:00,3.1020201772762923
1998-07-17 00:00:00-04:00,3.1128664016723633
1998-07-20 00:00:00-04:00,3.112865799665451
1998-07-21 00:00:00-04:00,3.0477898094680285
1998-07-22 00:00:00-04:00,2.950173314412435
1998-07-23 00:00:00-04:00,2.9067884127298993
1998-07-24 00:00:00-04:00,2.9501732736263633
1998-07-27 00:00:00-04:00,2.830863785834367
1998-07-28 00:00:00-04:00,2.8525577166664924
1998-07-29 00:00:00-04:00,2.776632856028949
1998-07-30 00:00:00-04:00,2.776634186851472
1998-07-31 00:00:00-04:00,2.8200185768247588
1998-08-03 00:00:00-04:00,2.7983254697173834
1998-08-04 00:00:00-04:00,2.77663232421875
1998-08-05 00:00:00-04:00,2.7115565489947313
1998-08-06 00:00:00-04:00,2.6681716442108154
1998-08-07 00:00:00-04:00,2.6898631897580576
1998-08-10 00:00:00-04:00,2.70071037709713
1998-08-11 00:00:00-04:00,2.516324493732858
1998-08-12 00:00:00-04:00,2.5271707544724147
1998-08-13 00:00:00-04:00,2.6030943943904
1998-08-14 00:00:00-04:00,2.5380169808864594
1998-08-17 00:00:00-04:00,2.603093971640377
1998-08-18 00:00:00-04:00,2.5380168099048706
1998-08-19 00:00:00-04:00,2.6356314640045166
1998-08-20 00:00:00-04:00,2.7440949997564
1998-08-21 00:00:00-04:00,2.7874791926121807
1998-08-24 00:00:00-04:00,2.722403354060893
1998-08-25 00:00:00-04:00,2.689864150683085
1998-08-26 00:00:00-04:00,2.5597084555132636
1998-08-27 00:00:00-04:00,2.5380163764953614
1998-08-28 00:00:00-04:00,2.429553790425145
1998-08-31 00:00:00-04:00,2.3319376603915143
1998-09-01 00:00:00-04:00,2.2560139232211642
1998-09-02 00:00:00-04:00,2.3644762264107757
1998-09-03 00:00:00-04:00,2.2777064566342333
1998-09-04 00:00:00-04:00,2.321091754095895
1998-09-08 00:00:00-04:00,2.4729388610907064
1998-09-09 00:00:00-04:00,2.462092705689143
1998-09-10 00:00:00-04:00,2.451246398428212
1998-09-11 00:00:00-04:00,2.5163244774671103
1998-09-14 00:00:00-04:00,2.798325415151528
1998-09-15 00:00:00-04:00,2.679018141219975
1998-09-16 00:00:00-04:00,2.7874795153285516
1998-09-17 00:00:00-04:00,2.820017564432703
1998-09-18 00:00:00-04:00,2.841710634303815
1998-09-21 00:00:00-04:00,2.8634034484180053
1998-09-22 00:00:00-04:00,2.9067873356460168
1998-09-23 00:00:00-04:00,2.895942855458771
1998-09-24 00:00:00-04:00,3.112865799665451
1998-09-25 00:00:00-04:00,3.0803262138366696
1998-09-28 00:00:00-04:00,3.2538673188212854
1998-09-29 00:00:00-04:00,3.1237126260684343
1998-09-30 00:00:00-04:00,3.112865799665451
1998-10-01 00:00:00-04:00,3.0369430757918447
1998-10-02 00:00:00-04:00,2.8200186938601357
1998-10-05 00:00:00-04:00,2.93932664845929
1998-10-06 00:00:00-04:00,2.86340245003936
1998-10-07 00:00:00-04:00,2.841711489606924
1998-10-08 00:00:00-04:00,2.7766334779800905
1998-10-09 00:00:00-04:00,2.733248452579274
1998-10-12 00:00:00-04:00,2.8200181765047456
1998-10-13 00:00:00-04:00,2.7058428403542525
1998-10-14 00:00:00-04:00,2.8688450493055955
1998-10-15 00:00:00-04:00,2.9666481152009427
1998-10-16 00:00:00-04:00,2.890579151224207
1998-10-19 00:00:00-04:00,2.944913495587939
1998-10-20 00:00:00-04:00,2.8905793807723303
1998-10-21 00:00:00-04:00,2.8579792932063675
1998-10-22 00:00:00-04:00,2.934047099082701
1998-10-23 00:00:00-04:00,3.0427155101598378
1998-10-26 00:00:00-05:00,3.064449231965201
1998-10-27 00:00:00-05:00,3.0535823512675515
1998-10-28 00:00:00-05:00,3.0427163210782138
1998-10-29 00:00:00-05:00,2.9883811073581668
1998-10-30 00:00:00-05:00,2.9557812722881187
1998-11-02 00:00:00-05:00,2.879712893544132
1998-11-03 00:00:00-05:00,3.0535823512675515
1998-11-04 00:00:00-05:00,3.031848669052124
1998-11-05 00:00:00-05:00,3.0318480780784123
1998-11-06 00:00:00-05:00,3.0861830645594104
1998-11-09 00:00:00-05:00,3.1731165552634266
1998-11-10 00:00:00-05:00,3.064449878047696
1998-11-11 00:00:00-05:00,3.0318490318630054
1998-11-12 00:00:00-05:00,2.999247681467157
1998-11-13 00:00:00-05:00,3.1187834347878303
1998-11-16 00:00:00-05:00,3.118782150913292
1998-11-17 00:00:00-05:00,3.0861835651260487
1998-11-18 00:00:00-05:00,3.020982503890991
1998-11-19 00:00:00-05:00,3.0209812181967277
1998-11-20 00:00:00-05:00,2.934046506881714
1998-11-23 00:00:00-05:00,2.9557814400151092
1998-11-24 00:00:00-05:00,2.8471120981069715
1998-11-25 00:00:00-05:00,2.868846427562625
1998-11-27 00:00:00-05:00,2.8036445420363854
1998-11-30 00:00:00-05:00,2.8471125185489656
1998-12-01 00:00:00-05:00,2.5971747152669984
1998-12-02 00:00:00-05:00,2.445038080215454
1998-12-03 00:00:00-05:00,2.412437895933787
1998-12-04 00:00:00-05:00,2.347238456625245
1998-12-07 00:00:00-05:00,2.466771993596675
1998-12-08 00:00:00-05:00,2.553706439336141
1998-12-09 00:00:00-05:00,2.445038682536075
1998-12-10 00:00:00-05:00,2.4559060739619394
1998-12-11 00:00:00-05:00,2.3958388381048077
1998-12-14 00:00:00-05:00,2.37405887159329
1998-12-15 00:00:00-05:00,2.330498533864175
1998-12-16 00:00:00-05:00,2.875006914138794
1998-12-17 00:00:00-05:00,2.8096657145114343
1998-12-18 00:00:00-05:00,2.853226424149864
1998-12-21 00:00:00-05:00,2.875006914138794
1998-12-22 00:00:00-05:00,2.8532268614139196
1998-12-23 00:00:00-05:00,2.8750072191346367
1998-12-24 00:00:00-05:00,2.896787200150666
1998-12-28 00:00:00-05:00,2.9185667037963867
1998-12-29 00:00:00-05:00,2.918567354661705
1998-12-30 00:00:00-05:00,2.9839084148406982
1998-12-31 00:00:00-05:00,2.973018845786219
1999-01-04 00:00:00-05:00,2.9730181753635407
1999-01-05 00:00:00-05:00,3.0492494106292725
1999-01-06 00:00:00-05:00,3.038359104959588
1999-01-07 00:00:00-05:00,3.0601396517161903
1999-01-08 00:00:00-05:00,2.9839093304342694
1999-01-11 00:00:00-05:00,3.2017126031543897
1999-01-12 00:00:00-05:00,2.994798086180153
1999-01-13 00:00:00-05:00,2.92363404354333
1999-01-14 00:00:00-05:00,2.978178497610057
1999-01-15 00:00:00-05:00,2.9454522150599822
1999-01-19 00:00:00-05:00,3.0109055144446235
1999-01-20 00:00:00-05:00,3.098178138051714
1999-01-21 00:00:00-05:00,3.076359752210206
1999-01-22 00:00:00-05:00,3.0436336919665337
1999-01-25 00:00:00-05:00,3.141814215023189
1999-01-26 00:00:00-05:00,3.0763599717098735
1999-01-27 00:00:00-05:00,3.0436337092029513
1999-01-28 00:00:00-05:00,2.9236338138580322
1999-01-29 00:00:00-05:00,2.923632880915766
1999-02-01 00:00:00-05:00,2.989088302227988
1999-02-02 00:00:00-05:00,2.9018136527803207
1999-02-03 00:00:00-05:00,2.792724145229325
1999-02-04 00:00:00-05:00,2.8690881729125977
1999-02-05 00:00:00-05:00,2.879996788897637
1999-02-08 00:00:00-05:00,2.967268943786621
1999-02-09 00:00:00-05:00,2.978179454803467
1999-02-10 00:00:00-05:00,2.967269411694245
1999-02-11 00:00:00-05:00,2.923632374383453
1999-02-12 00:00:00-05:00,2.8690872507936818
1999-02-16 00:00:00-05:00,2.923633575439453
1999-02-17 00:00:00-05:00,2.8363604599985335
1999-02-18 00:00:00-05:00,2.869087932667056
1999-02-19 00:00:00-05:00,2.879996772940832
1999-02-22 00:00:00-05:00,2.8799967747677417
1999-02-23 00:00:00-05:00,2.869088655251723
1999-02-24 00:00:00-05:00,2.836360693891386
1999-02-25 00:00:00-05:00,2.8799967819385315
1999-02-26 00:00:00-05:00,2.923633575439453
1999-03-01 00:00:00-05:00,2.923634074628353
1999-03-02 00:00:00-05:00,2.8254523277282715
1999-03-03 00:00:00-05:00,2.8472704980522394
1999-03-04 00:00:00-05:00,2.792725070017689
1999-03-05 00:00:00-05:00,2.901815651068047
1999-03-08 00:00:00-05:00,2.9563612902994123
1999-03-09 00:00:00-05:00,2.9672696489940655
1999-03-10 00:00:00-05:00,2.8799970270060804
1999-03-11 00:00:00-05:00,3.1418149385520877
1999-03-12 00:00:00-05:00,3.032723660054414
1999-03-15 00:00:00-05:00,3.021815299987793
1999-03-16 00:00:00-05:00,3.032724142074585
1999-03-17 00:00:00-05:00,3.0327241495511257
1999-03-18 00:00:00-05:00,3.1418144418874805
1999-03-19 00:00:00-05:00,3.032724380493164
1999-03-22 00:00:00-05:00,3.054541815882144
1999-03-23 00:00:00-05:00,2.967269425825639
1999-03-24 00:00:00-05:00,3.01090573384753
1999-03-25 00:00:00-05:00,2.9672698974609375
1999-03-26 00:00:00-05:00,2.9236340505039826
1999-03-29 00:00:00-05:00,2.97817827048509
1999-03-30 00:00:00-05:00,2.9999976338080643
1999-03-31 00:00:00-05:00,2.923632374383453
1999-04-01 00:00:00-05:00,2.8909065696730543
1999-04-05 00:00:00-04:00,2.9672703796159823
1999-04-06 00:00:00-04:00,2.9127232983596345
1999-04-07 00:00:00-04:00,2.879996772940832
1999-04-08 00:00:00-04:00,2.8581795729123627
1999-04-09 00:00:00-04:00,2.7927241434577765
1999-04-12 00:00:00-04:00,2.847269552660164
1999-04-13 00:00:00-04:00,2.9506784548862375
1999-04-14 00:00:00-04:00,2.9943917243035285
1999-04-15 00:00:00-04:00,2.9725347953930235
1999-04-16 00:00:00-04:00,3.1255319315214756
1999-04-19 00:00:00-04:00,3.300389192606273
1999-04-20 00:00:00-04:00,3.333174378088076
1999-04-21 00:00:00-04:00,3.2129611539840695
1999-04-22 00:00:00-04:00,3.2785318841870197
1999-04-23 00:00:00-04:00,3.234817781119511
1999-04-26 00:00:00-04:00,3.1801753239972252
1999-04-27 00:00:00-04:00,3.0490345607369633
1999-04-28 00:00:00-04:00,3.2238901053604327
1999-04-29 00:00:00-04:00,3.322245267481586
1999-04-30 00:00:00-04:00,3.3659598388169942
1999-05-03 00:00:00-04:00,3.3331745157116335
1999-05-04 00:00:00-04:00,3.344103000380776
1999-05-05 00:00:00-04:00,3.3441016507703205
1999-05-06 00:00:00-04:00,3.2785313470023016
1999-05-07 00:00:00-04:00,3.1473905181884763
1999-05-10 00:00:00-04:00,3.289458889019914
1999-05-11 00:00:00-04:00,3.3441031394466276
1999-05-12 00:00:00-04:00,3.3441031394466276
1999-05-13 00:00:00-04:00,3.3878165235915505
1999-05-14 00:00:00-04:00,3.4096710316909644
1999-05-17 00:00:00-04:00,3.3331737058614594
1999-05-18 00:00:00-04:00,3.3550290313884368
1999-05-19 00:00:00-04:00,3.3222462561822708
1999-05-20 00:00:00-04:00,3.3878152175027814
1999-05-21 00:00:00-04:00,3.333172628408883
1999-05-24 00:00:00-04:00,3.376887743473053
1999-05-25 00:00:00-04:00,3.2785313583935385
1999-05-26 00:00:00-04:00,3.289458431426448
1999-05-27 00:00:00-04:00,3.3003880977630615
1999-05-28 00:00:00-04:00,3.289459291833346
1999-06-01 00:00:00-04:00,3.322244777235874
1999-06-02 00:00:00-04:00,3.289459226223139
1999-06-03 00:00:00-04:00,3.4643142017034387
1999-06-04 00:00:00-04:00,3.4533870227611696
1999-06-07 00:00:00-04:00,3.508028896843515
1999-06-08 00:00:00-04:00,3.5189586269321724
1999-06-09 00:00:00-04:00,3.6610270477272007
1999-06-10 00:00:00-04:00,3.6282417308818826
1999-06-11 00:00:00-04:00,3.5954577275176542
1999-06-14 00:00:00-04:00,3.6610260445200753
1999-06-15 00:00:00-04:00,3.65009994222157
1999-06-16 00:00:00-04:00,3.6828828508203677
1999-06-17 00:00:00-04:00,3.6500970355251376
1999-06-18 00:00:00-04:00,3.748454664459676
1999-06-21 00:00:00-04:00,3.748452871508852
1999-06-22 00:00:00-04:00,3.6719543502309557
1999-06-23 00:00:00-04:00,3.6391699773719512
1999-06-24 00:00:00-04:00,3.661028310793255
1999-06-25 00:00:00-04:00,3.5845278230912845
1999-06-28 00:00:00-04:00,3.56267049908638
1999-06-29 00:00:00-04:00,3.4861710713743794
1999-06-30 00:00:00-04:00,3.529885722531213
1999-07-01 00:00:00-04:00,3.49709965632512
1999-07-02 00:00:00-04:00,3.562670057470148
1999-07-06 00:00:00-04:00,3.562670274881216
1999-07-07 00:00:00-04:00,3.650098454001491
1999-07-08 00:00:00-04:00,3.606386097199326
1999-07-09 00:00:00-04:00,3.573598936200142
1999-07-12 00:00:00-04:00,3.540814249297422
1999-07-13 00:00:00-04:00,3.436731415703183
1999-07-14 00:00:00-04:00,3.491456438246227
1999-07-15 00:00:00-04:00,3.4148441727753656
1999-07-16 00:00:00-04:00,3.436732985619867
1999-07-19 00:00:00-04:00,3.4695686592331416
1999-07-20 00:00:00-04:00,3.589963842969422
1999-07-21 00:00:00-04:00,3.5790175996720794
1999-07-22 00:00:00-04:00,3.513349025337784
1999-07-23 00:00:00-04:00,3.5899632492957756
1999-07-26 00:00:00-04:00,3.7213046565377637
1999-07-27 00:00:00-04:00,3.5790175996720794
1999-07-28 00:00:00-04:00,3.5024041122531298
1999-07-29 00:00:00-04:00,3.535240856806437
1999-07-30 00:00:00-04:00,3.743193387985229
1999-08-02 00:00:00-04:00,3.7431962013244626
1999-08-03 00:00:00-04:00,3.7979161845156426
1999-08-04 00:00:00-04:00,3.7103569832715118
1999-08-05 00:00:00-04:00,3.85264306210567
1999-08-06 00:00:00-04:00,4.082489400877988
1999-08-09 00:00:00-04:00,4.378003303450768
1999-08-10 00:00:00-04:00,4.312335167517209
1999-08-11 00:00:00-04:00,3.940203273392752
1999-08-12 00:00:00-04:00,4.148157129896448
1999-08-13 00:00:00-04:00,4.14815922164917
1999-08-16 00:00:00-04:00,4.093433400691358
1999-08-17 00:00:00-04:00,4.148159734664425
1999-08-18 00:00:00-04:00,4.104375678139764
1999-08-19 00:00:00-04:00,4.060596766295256
1999-08-20 00:00:00-04:00,4.191937623992759
1999-08-23 00:00:00-04:00,4.180991818665197
1999-08-24 00:00:00-04:00,4.126269340515137
1999-08-25 00:00:00-04:00,4.126269340515137
1999-08-26 00:00:00-04:00,4.115323418876874
1999-08-27 00:00:00-04:00,4.1043784097841165
1999-08-30 00:00:00-04:00,4.049653508388325
1999-08-31 00:00:00-04:00,4.082488007570436
1999-09-01 00:00:00-04:00,4.202882603236607
1999-09-02 00:00:00-04:00,4.170047471867526
1999-09-03 00:00:00-04:00,4.115324188232422
1999-09-07 00:00:00-04:00,4.082487382714493
1999-09-08 00:00:00-04:00,4.159103681643804
1999-09-09 00:00:00-04:00,4.290443807545275
1999-09-10 00:00:00-04:00,4.443673353002529
1999-09-13 00:00:00-04:00,4.334224759615385
1999-09-14 00:00:00-04:00,4.279499501701375
1999-09-15 00:00:00-04:00,4.126271068562604
1999-09-16 00:00:00-04:00,4.0277645972467235
1999-09-17 00:00:00-04:00,4.027763489424064
1999-09-20 00:00:00-04:00,4.1153222313222955
1999-09-21 00:00:00-04:00,4.2028813596631664
1999-09-22 00:00:00-04:00,4.038706306551323
1999-09-23 00:00:00-04:00,4.049653051948013
1999-09-24 00:00:00-04:00,3.9073702876247576
1999-09-27 00:00:00-04:00,3.7979176784383837
1999-09-28 00:00:00-04:00,3.8526448208861557
1999-09-29 00:00:00-04:00,3.6009083742203982
1999-09-30 00:00:00-04:00,3.699415575756746
1999-10-01 00:00:00-04:00,3.699415575756746
1999-10-04 00:00:00-04:00,3.677523328546892
1999-10-05 00:00:00-04:00,3.7103596074240546
1999-10-06 00:00:00-04:00,3.6665787257456706
1999-10-07 00:00:00-04:00,3.6556345394679477
1999-10-08 00:00:00-04:00,3.6775239367003834
1999-10-11 00:00:00-04:00,3.5899644579206194
1999-10-12 00:00:00-04:00,3.7213026244064857
1999-10-13 00:00:00-04:00,3.7702841744494084
1999-10-14 00:00:00-04:00,3.6826011725431362
1999-10-15 00:00:00-04:00,3.715484708547592
1999-10-18 00:00:00-04:00,3.4853197610156137
1999-10-19 00:00:00-04:00,3.5839600697071594
1999-10-20 00:00:00-04:00,3.748363639938999
1999-10-21 00:00:00-04:00,3.8689256320919907
1999-10-22 00:00:00-04:00,3.7264458338419595
1999-10-25 00:00:00-04:00,3.923723967179008
1999-10-26 00:00:00-04:00,3.8360428880657667
1999-10-27 00:00:00-04:00,3.7154815401551287
1999-10-28 00:00:00-04:00,3.704523566283716
1999-10-29 00:00:00-04:00,3.6058815936068513
1999-11-01 00:00:00-05:00,3.638760958399091
1999-11-02 00:00:00-05:00,3.6826015819202773
1999-11-03 00:00:00-05:00,3.3647594716813827
1999-11-04 00:00:00-05:00,3.4524385999925067
1999-11-05 00:00:00-05:00,3.3318787011677085
1999-11-08 00:00:00-05:00,3.21131782690684
1999-11-09 00:00:00-05:00,3.29899720837993
1999-11-10 00:00:00-05:00,3.408599021314066
1999-11-11 00:00:00-05:00,3.485319309849893
1999-11-12 00:00:00-05:00,3.375721964866492
1999-11-15 00:00:00-05:00,3.4414792608770526
1999-11-16 00:00:00-05:00,3.4853217256797473
1999-11-17 00:00:00-05:00,3.4414794502144086
1999-11-18 00:00:00-05:00,3.55108065692925
1999-11-19 00:00:00-05:00,3.4853233273621576
1999-11-22 00:00:00-05:00,3.419560938402771
1999-11-23 00:00:00-05:00,3.3976383642716845
1999-11-24 00:00:00-05:00,3.3976388958436026
1999-11-26 00:00:00-05:00,3.463399648666382
1999-11-29 00:00:00-05:00,3.4195602798461917
1999-11-30 00:00:00-05:00,3.2880376319627502
1999-12-01 00:00:00-05:00,3.2880368440047554
1999-12-02 00:00:00-05:00,3.244198112221031
1999-12-03 00:00:00-05:00,3.1784383084276597
1999-12-06 00:00:00-05:00,2.9811539071978945
1999-12-07 00:00:00-05:00,2.7181109357471307
1999-12-08 00:00:00-05:00,2.652350242614746
1999-12-09 00:00:00-05:00,2.8167527739709546
1999-12-10 00:00:00-05:00,2.7948318672180172
1999-12-13 00:00:00-05:00,2.783872552216053
1999-12-14 00:00:00-05:00,2.8386734893002847
1999-12-15 00:00:00-05:00,2.7838725008705794
1999-12-16 00:00:00-05:00,2.849634089593078
1999-12-17 00:00:00-05:00,3.014035701751709
1999-12-20 00:00:00-05:00,3.014035757644709
1999-12-21 00:00:00-05:00,2.992115286343238
1999-12-22 00:00:00-05:00,2.959234023182809
1999-12-23 00:00:00-05:00,2.90443445736672
1999-12-27 00:00:00-05:00,2.9701937825390785
1999-12-28 00:00:00-05:00,2.9811551570892334
1999-12-29 00:00:00-05:00,3.024995301174343
1999-12-30 00:00:00-05:00,3.1017167978671005
1999-12-31 00:00:00-05:00,2.9592335181728378
2000-01-03 00:00:00-05:00,3.0140349461186315
2000-01-04 00:00:00-05:00,2.6304304984308056
2000-01-05 00:00:00-05:00,2.6742716666573805
2000-01-06 00:00:00-05:00,2.641389885167966
2000-01-07 00:00:00-05:00,2.893473780432413
2000-01-10 00:00:00-05:00,2.7838717515652
2000-01-11 00:00:00-05:00,2.8057928886122374
2000-01-12 00:00:00-05:00,2.8658438957374517
2000-01-13 00:00:00-05:00,2.8987838230775984
2000-01-14 00:00:00-05:00,2.9756470927420784
2000-01-18 00:00:00-05:00,3.0305482109824378
2000-01-19 00:00:00-05:00,3.04152785687551
2000-01-20 00:00:00-05:00,2.997606127119776
2000-01-21 00:00:00-05:00,2.9756460877565236
2000-01-24 00:00:00-05:00,2.8109421617402806
2000-01-25 00:00:00-05:00,2.788981168746948
2000-01-26 00:00:00-05:00,2.756041533390995
2000-01-27 00:00:00-05:00,2.7889812677978023
2000-01-28 00:00:00-05:00,2.7121196780048433
2000-01-31 00:00:00-05:00,2.7231002191858966
2000-02-01 00:00:00-05:00,2.7670212015509605
2000-02-02 00:00:00-05:00,2.8548627188711455
2000-02-03 00:00:00-05:00,2.920744858970938
2000-02-04 00:00:00-05:00,2.8219234857901156
2000-02-07 00:00:00-05:00,2.799962500491774
2000-02-08 00:00:00-05:00,2.7560409134434116
2000-02-09 00:00:00-05:00,2.745060999858429
2000-02-10 00:00:00-05:00,2.646238519450811
2000-02-11 00:00:00-05:00,2.7999614095687866
2000-02-14 00:00:00-05:00,2.7450616397554914
2000-02-15 00:00:00-05:00,2.767021454297579
2000-02-16 00:00:00-05:00,2.8768230120340985
2000-02-17 00:00:00-05:00,2.8219227873680675
2000-02-18 00:00:00-05:00,2.843883979842957
2000-02-22 00:00:00-05:00,2.74506067076037
2000-02-23 00:00:00-05:00,2.7011398763979892
2000-02-24 00:00:00-05:00,2.6242793798446655
2000-02-25 00:00:00-05:00,2.4705549349655977
2000-02-28 00:00:00-05:00,2.470554838096518
2000-02-29 00:00:00-05:00,2.4925148457777304
2000-03-01 00:00:00-05:00,2.723099723815918
2000-03-02 00:00:00-05:00,2.810942099127971
2000-03-03 00:00:00-05:00,3.1183894601539586
2000-03-06 00:00:00-05:00,3.008588545614009
2000-03-07 00:00:00-05:00,3.1842696228154925
2000-03-08 00:00:00-05:00,3.272111921120953
2000-03-09 00:00:00-05:00,3.337994804382324
2000-03-10 00:00:00-05:00,3.2391727010810416
2000-03-13 00:00:00-05:00,3.217212556976161
2000-03-14 00:00:00-05:00,3.2172104361894966
2000-03-15 00:00:00-05:00,3.2940727045104774
2000-03-16 00:00:00-05:00,3.217212097644806
2000-03-17 00:00:00-05:00,3.294072118965355
2000-03-20 00:00:00-05:00,3.217211608173085
2000-03-21 00:00:00-05:00,3.228190583130189
2000-03-22 00:00:00-05:00,3.3599530163377818
2000-03-23 00:00:00-05:00,3.337994337081909
2000-03-24 00:00:00-05:00,3.3270163827023262
2000-03-27 00:00:00-05:00,3.228194113909188
2000-03-28 00:00:00-05:00,3.283093479458954
2000-03-29 00:00:00-05:00,3.403875233900261
2000-03-30 00:00:00-05:00,3.8101439644461097
2000-03-31 00:00:00-05:00,4.029747180882457
2000-04-03 00:00:00-04:00,3.865046552432481
2000-04-04 00:00:00-04:00,4.194456288308809
2000-04-05 00:00:00-04:00,4.062692297606909
2000-04-06 00:00:00-04:00,3.9638687654208113
2000-04-07 00:00:00-04:00,4.073669133362947
2000-04-10 00:00:00-04:00,4.139552417728636
2000-04-11 00:00:00-04:00,3.963867510477702
2000-04-12 00:00:00-04:00,4.199827098601275
2000-04-13 00:00:00-04:00,4.221818417918925
2000-04-14 00:00:00-04:00,4.320766356683547
2000-04-17 00:00:00-04:00,4.122869520161393
2000-04-18 00:00:00-04:00,3.9909377650210733
2000-04-19 00:00:00-04:00,4.15585003259047
2000-04-20 00:00:00-04:00,4.30977264164001
2000-04-24 00:00:00-04:00,4.144857293816023
2000-04-25 00:00:00-04:00,4.133863681207889
2000-04-26 00:00:00-04:00,4.177840954412228
2000-04-27 00:00:00-04:00,4.133862028519312
2000-04-28 00:00:00-04:00,4.210823389753025
2000-05-01 00:00:00-04:00,4.397726289316076
2000-05-02 00:00:00-04:00,4.573636254598928
2000-05-03 00:00:00-04:00,4.716561685289656
2000-05-04 00:00:00-04:00,4.6176117968074895
2000-05-05 00:00:00-04:00,4.826506074968275
2000-05-08 00:00:00-04:00,4.947441353880126
2000-05-09 00:00:00-04:00,5.090366101630146
2000-05-10 00:00:00-04:00,5.002414807029393
2000-05-11 00:00:00-04:00,5.101363520207172
2000-05-12 00:00:00-04:00,5.1893180525930305
2000-05-15 00:00:00-04:00,5.200312498262373
2000-05-16 00:00:00-04:00,5.189316247190748
2000-05-17 00:00:00-04:00,4.94744069406677
2000-05-18 00:00:00-04:00,5.233293545050699
2000-05-19 00:00:00-04:00,5.409204114610761
2000-05-22 00:00:00-04:00,5.4751683485531855
2000-05-23 00:00:00-04:00,5.552129874746484
2000-05-24 00:00:00-04:00,5.486164344493564
2000-05-25 00:00:00-04:00,5.541134337748377
2000-05-26 00:00:00-04:00,5.365224822362264
2000-05-30 00:00:00-04:00,5.2772719601550735
2000-05-31 00:00:00-04:00,5.497158949191754
2000-06-01 00:00:00-04:00,5.783007934079532
2000-06-02 00:00:00-04:00,5.673066111861683
2000-06-05 00:00:00-04:00,5.3652280803546155
2000-06-06 00:00:00-04:00,5.266278093079647
2000-06-07 00:00:00-04:00,5.5191476402282715
