fillingDate,revenuePerShare,netIncomePerShare,operatingCashFlowPerShare,freeCashFlowPerShare,cashPerShare,bookValuePerShare,tangibleBookValuePerShare,shareholdersEquityPerShare,interestDebtPerShare,marketCap,enterpriseValue,peRatio,priceToSalesRatio,pocfratio,pfcfRatio,pbRatio,ptbRatio,evToSales,enterpriseValueOverEBITDA,evToOperatingCashFlow,evToFreeCashFlow,earningsYield,freeCashFlowYield,debtToEquity,debtToAssets,netDebtToEBITDA,currentRatio,interestCoverage,incomeQuality,dividendYield,payoutRatio,salesGeneralAndAdministrativeToRevenue,researchAndDdevelopementToRevenue,intangiblesToTotalAssets,capexToOperatingCashFlow,capexToRevenue,capexToDepreciation,stockBasedCompensationToRevenue,grahamNumber,roic,returnOnTangibleAssets,grahamNetNet,workingCapital,tangibleAssetValue,netCurrentAssetValue,investedCapital,averageReceivables,averagePayables,averageInventory,daysSalesOutstanding,daysPayablesOutstanding,daysOfInventoryOnHand,receivablesTurnover,payablesTurnover,inventoryTurnover,roe,capexPerShare,growthCashAndCashEquivalents,growthShortTermInvestments,growthCashAndShortTermInvestments,growthNetReceivables,growthInventory,growthOtherCurrentAssets,growthTotalCurrentAssets,growthPropertyPlantEquipmentNet,growthGoodwill,growthIntangibleAssets,growthGoodwillAndIntangibleAssets,growthLongTermInvestments,growthTaxAssets,growthOtherNonCurrentAssets,growthTotalNonCurrentAssets,growthOtherAssets,growthTotalAssets,growthAccountPayables,growthShortTermDebt,growthTaxPayables,growthDeferredRevenue,growthOtherCurrentLiabilities,growthTotalCurrentLiabilities,growthLongTermDebt,growthDeferredRevenueNonCurrent,growthDeferrredTaxLiabilitiesNonCurrent,growthOtherNonCurrentLiabilities,growthTotalNonCurrentLiabilities,growthOtherLiabilities,growthTotalLiabilities,growthCommonStock,growthRetainedEarnings,growthAccumulatedOtherComprehensiveIncomeLoss,growthOthertotalStockholdersEquity,growthTotalStockholdersEquity,growthTotalLiabilitiesAndStockholdersEquity,growthTotalInvestments,growthTotalDebt,growthNetDebt,growthNetIncome,growthDepreciationAndAmortization,growthDeferredIncomeTax,growthStockBasedCompensation,growthChangeInWorkingCapital,growthAccountsReceivables,growthAccountsPayables,growthOtherWorkingCapital,growthOtherNonCashItems,growthNetCashProvidedByOperatingActivites,growthInvestmentsInPropertyPlantAndEquipment,growthAcquisitionsNet,growthPurchasesOfInvestments,growthSalesMaturitiesOfInvestments,growthOtherInvestingActivites,growthNetCashUsedForInvestingActivites,growthDebtRepayment,growthCommonStockIssued,growthCommonStockRepurchased,growthDividendsPaid,growthOtherFinancingActivites,growthNetCashUsedProvidedByFinancingActivities,growthEffectOfForexChangesOnCash,growthNetChangeInCash,growthCashAtEndOfPeriod,growthCashAtBeginningOfPeriod,growthOperatingCashFlow,growthCapitalExpenditure,growthFreeCashFlow,date,symbol,calendarYear,period,growthRevenue,growthCostOfRevenue,growthGrossProfit,growthGrossProfitRatio,growthResearchAndDevelopmentExpenses,growthGeneralAndAdministrativeExpenses,growthSellingAndMarketingExpenses,growthOtherExpenses,growthOperatingExpenses,growthCostAndExpenses,growthInterestExpense,growthEBITDA,growthEBITDARatio,growthOperatingIncome,growthOperatingIncomeRatio,growthTotalOtherIncomeExpensesNet,growthIncomeBeforeTax,growthIncomeBeforeTaxRatio,growthIncomeTaxExpense,growthNetIncomeRatio,growthEPS,growthEPSDiluted,growthWeightedAverageShsOut,growthWeightedAverageShsOutDil
2024-02-22,40.056798623063685,13.070567986230635,19.518072289156628,8.87263339070568,9.08433734939759,48.34767641996557,48.34767641996557,48.34767641996557,6.537005163511187,70271950000,69793950000,9.253614695812484,3.019462467236712,6.196820987654321,13.63180407371484,2.501671413314347,2.501671413314347,2.99892364542603,5.187212931995541,6.154669312169312,13.539078564500484,0.108065878348331,0.0733578618495715,0.129939480242079,0.0832250267916182,-0.0355258268301746,2.438635247913598,64.88513513513513,1.4932841717145116,0.048184232826896,0.4458783249934158,0.0274996777381515,0,0.0,0.5454144620811288,0.2657586043913548,2.224020136641496,0.0076053796244575,119.24118756338936,0.2371328076330787,0.1731536584809722,-13.450086058519794,5861000000,28090000000,-5832000000,38158000000,2793500000,2484500000,1166500000,42.59614145146737,101.2757599908915,52.98588181714676,8.568851251840943,3.604021337710299,6.888627450980392,0.2703453186187255,10.645438898450946,-0.1162089752176825,0.0,-0.1162089752176825,-0.0539881574364333,0.2051039697542533,0.1602787456445993,-0.0515513126491646,0.0974548914336198,0,0,0.0,0.0,0.2727272727272727,0.103905160390516,0.0979414810978767,0,0.0600904014889657,-0.037519747235387,-0.9784673844205192,0.1506172839506173,0.0,0.1583452211126961,-0.2610194086704154,0.0100558659217877,0,0.1469214437367303,-0.0855165595650024,0.055420164274754,0,-0.0497227579556412,0.0,0.2253139887397141,-0.125,0,0.1336212115097461,0.0600904014889657,0.0,-0.106810569408262,0.2006688963210702,2.825692695214106,2.056043956043956,4.598360655737705,0.3308270676691729,0.9690721649484536,0.7912087912087912,-1.348973607038123,11.58695652173913,-6.0588235294117645,2.581806696146557,-5.099605522682446,-0.5988538681948424,0,0,-0.7151162790697675,-6.574671445639187,-127.2,0,-7.796610169491525,0.3422688422688422,-0.5714285714285714,-3.026874115983027,-1.0,-1.75764192139738,0.0132463044730274,0.3911017936175169,2.581806696146557,-5.099605522682446,1.395446096654275,2023-12-31,EOG,2023,FY,-0.2108707446087074,0.5986530760829997,-0.3961996833069422,-0.2348524495767445,0,0.1228070175438596,-0.1263963274674827,-1.5544178991277968,-0.4983576267706836,-0.1027828826463638,-0.1731843575418994,-0.0301304692568298,0.1158664074101636,-0.3317327766179541,-0.1531587268373707,2.3230769230769233,-0.0214119785880214,0.2400858472592686,-0.0219421101774042,0.2402713073037813,-0.0180315552216378,-0.0166414523449319,-0.0034305317324185,-0.0051107325383304
2023-02-23,50.58662092624357,13.308747855917668,5.430531732418525,3.6912521440823327,10.243567753001717,42.502572898799315,42.502572898799315,42.502572898799315,9.156089193825045,75510160000,74912160000,9.731944838252351,2.560360775803608,23.850334807327854,35.08836431226766,3.047344929173897,3.047344929173897,2.540084090600841,5.3998529517768326,23.661452937460517,34.81048327137547,0.1027543843106675,0.0284994760969914,0.2082004923523951,0.1247008774262164,-0.0431053124774742,1.9000544168329403,80.27932960893855,1.594962216624685,0.0681762560164089,0.6634875628302617,0.0193272751932727,0,0.0,0.3202779532533165,0.034382205343822,1.1142857142857143,0.0045096975450969,112.81516114247364,0.3761496615950108,0.187546832322158,-13.615351629502571,4962000000,24779000000,-6117000000,34391000000,2603000000,2387000000,821000000,35.53217821782178,168.21623589370222,70.28940662540954,10.272378962034134,2.169826224328594,5.19281663516068,0.3131280519794988,1.739279588336192,0.1464772509118832,0.0,0.1464772509118832,0.2295503211991434,0.8116438356164384,0.2587719298245614,0.2202935694315004,0.0352845986069091,0,0,1.0,-1.0,2.0,0.1802469135802469,0.0419533252394442,0,0.0819907940161104,0.1293487957181088,4.700361010830325,-0.2181467181467181,-1.0,-0.037087912087912,0.3639287481444829,-0.2632228853673595,0,-0.0082122552116235,0.237308868501529,-0.077825869818545,0,0.033383158943697,0.0,0.160374395376594,0.3333333333333333,0,0.1171776375112714,0.0819907940161104,-1.0,0.00467377079828,-5.271428571428571,-0.5743996569468267,-0.8237117396358,2.0,-0.125,1.1872586872586872,0.7783191230207065,-0.2521929824561403,1.3285714285714283,1.0310786106032908,-0.6398589466499829,0.7366233766233766,0.5108225108225108,0,0,-1.86,0.7551915764843522,0.9872935196950444,0,-1.8780487804878048,-0.918032786885246,0.4736842105263157,0.5951903807615231,0.0,-0.5127659574468085,0.0,0.2895764493841994,-0.6398589466499829,0.7366233766233766,-0.5644606354988869,2022-12-31,EOG,2022,FY,0.4994153236056739,0.0278765201122544,0.6753700083775481,0.1173488638743032,0,0.1154598825831702,0.5660196501317997,0.3009373458312777,0.4516465504395768,0.2637690776376907,0.0056179775280898,0.367741299418318,-0.0960135883997505,1.3549655850540807,0.570589247621715,0.6153846153846154,0.6688016180684309,0.1129682298607458,0.6879432624113475,0.1094947846554252,0.6575342465753427,0.6545682102628285,0.0034423407917383,0.0051369863013698
2022-02-24,33.85370051635112,8.027538726333907,15.130808950086058,8.504302925989673,8.965576592082616,38.17555938037866,38.18588640275387,38.17555938037866,9.146299483648882,51610230000,51750230000,11.065658233276158,2.623937668412222,5.8708030940734846,10.445300546448088,2.326881424706943,2.326881424706943,2.6310554679953224,5.102063492063492,5.886728472301217,10.473634891722323,0.0903696805846437,0.0957368335696237,0.2315599639314698,0.1343236740244795,0.0138026224982746,2.1237011380504702,34.28089887640449,1.8848627787307033,0.0520051935439931,0.5754716981132075,0.0259799684783161,0,-0.0001569201799351,0.437947901262655,0.1957394885352585,0.7458349476946919,0.0077278966902231,83.03767265417913,0.1756059766035317,0.1219601485277966,-15.15275387263339,4542000000,22186000000,-7472000000,32962000000,1940146500,1858623000,606700500,43.33087599776298,153.1019644527596,39.88026192703462,8.42355460385439,2.3840321141837646,9.152397260273972,0.2102795311091073,6.626506024096385,0.5647679973853444,-1.0,0.5647679973853444,0.5110403010950026,-0.0721336635944334,0.5510889937310153,0.4643046736292784,-0.006036198870666,0,0,-4.644402634054563,4.644402634054563,4.171603196991067,-0.0944182624905063,-0.0096997127788513,0,0.0679074457497794,0.5197465371876961,-0.7425992642241784,1.517569524772301,1.254397137813613,0.9312342656136842,0.1681729797717062,0.0009576975377347,0,-0.0227041728206395,-0.1841097514603687,-0.0023757308424004,0,0.0356896218300873,0.0007918887274882,0.1234322389837267,0.026606099935107,0,0.0925092825115222,0.0679074457497794,-0.908567248788516,-0.1247639284273207,-0.9496867280057328,8.714548473961745,0.1725744779011053,0.3454584473415956,0.0410958904109589,-4.404311251314406,-2.7598274897486297,1.5733923323864816,-1.3907809198424594,-1.4982193440263774,0.7554674393838551,-0.111207319537045,0.2035763411279229,0,0,3.6761581074209864,-0.0213573926379818,0.2280105626204087,0,-1.541847489150651,-2.269888879819401,0.464354527938343,-8.729127498085091,4.378378378378378,0.445091148355517,0.5647679973853444,0.6415414019522953,0.7554674393838551,-0.111207319537045,2.202031258201924,2021-12-31,EOG,2021,FY,0.992152525412124,0.085733763049626,1.8935608372984112,0.4524795668012644,0,0.0561713684549928,0.5468566338575891,0.5463367001312136,0.4938589508662646,0.2804649438734489,-0.1328325197548547,1.6219525908164192,0.4627675921450596,12.03461799725722,5.542981940097797,0.1335732668901945,9.027830172084856,5.029726674513248,10.436207076039915,4.872468788252463,8.721153846153847,8.682692307692308,0.0035426263798711,0.0087244299584246
2021-02-25,17.05373012130602,-1.0442577843644258,8.64978262333988,2.6653176704683834,5.861461026791652,35.06679690266328,35.068632988397944,35.06679690266328,10.598101041715246,28872186630,31654752630,-47.75640722693079,2.924286924049248,5.765462806595254,18.71071525640552,1.422143007199281,1.422143007199281,3.2061159892801148,8.182713267266228,6.3211110844858895,20.51396628049172,-0.0209395986437623,0.0534453112185358,0.2921154077943592,0.1656349696509675,0.7192897695768194,1.6942172836423417,2.280640729589898,-8.283187114189873,0.0284295405304395,-1.3576927148462052,0.0490034679598591,0,-2.968892182320367e-05,0.6918630459826235,0.350918239605236,0.7870241754327701,0.0147874456612013,28.704049398342395,0.0145984935258434,-0.0168848146483193,-18.370455342353125,2402064000,20302950000,-9640546000,30999628000,1849308000,1952186500,698349000,57.1273406703372,109.37874700026693,46.66550035771322,6.389234921791531,3.337028536257682,7.82162405207491,-0.0297791037847861,5.984464952871496,0.6415058985035297,48.69899923017706,0.6415058985035297,-0.2823682280828282,-0.1797165895344306,-0.0947198896371637,0.1116615108567835,-0.0581587865736394,0,0,0.0,0.0,-0.0998730427422767,-0.0960930694443415,-0.0599296687362754,0,-0.0355561195420568,-0.3926846970125481,-0.2223776617922391,-0.1926466548950363,0.0048679364461214,0.2375322957121799,-0.2288582006459567,0.1666535685986677,0,-0.0370135278703299,0.1195954598175077,0.0950909455970516,0,0.0012155858488292,7.287850667081265e-05,-0.0944898982682417,-1.650042992261393,0,-0.0618662062752452,-0.0355561195420568,49.517321016166285,0.1022011943425272,-0.2087871029527677,-1.2210573656902786,0.1106455262138117,-1.295080565749187,-0.1644633680138264,-0.6132908400555056,6.0823928011155655,-5.718593322613757,0.5821067553424041,3.1479402164057304,-0.3865401718447958,0.4605393578788159,0.3680609015481995,0,0,-1.711339126793006,0.4580844667941144,-0.1167106109219092,0,0.3548,-0.3954828289697382,-0.2667420175190731,0.7627568770934917,0.1494252873563218,1.7542903598694155,0.6415058985035297,0.3036305454882061,-0.3865401718447958,0.4605393578788159,-0.113503889917238,2020-12-31,EOG,2020,FY,-0.4172235215453537,-0.1202439544379632,-0.5636935118925486,-0.2513313349283294,0,-0.0113895262946033,-0.4958951879875714,-0.1766018336821634,-0.3956078299895774,-0.2773397024478559,0.108772801668026,-0.5052445985079672,-0.1372572908206832,-0.8734423877084982,-0.7828367873486077,-0.2665844155844156,-1.208462155318626,-1.3577051632119443,-1.1659540177970944,-1.3793175837104867,-1.2198731501057083,-1.2208067940552016,0.0022140668547786,-0.0031475075631438
2020-02-27,29.327690549967976,4.7343812211123995,14.131216784669448,3.013232468364291,3.5128550902764553,37.46207350217252,37.46207350217252,37.46207350217252,9.919048937974967,48385639200,51902475200,17.691857940480677,2.8560039481216997,5.927302742313658,27.79739063593339,2.2358612903565667,2.2358612903565667,3.0635882162426533,6.637996561451552,6.358119654350388,29.81780135512285,0.0565231759922683,0.0359745996700607,0.2562210973056529,0.1493566746886593,0.4497809629547114,1.17525141587185,19.98072155091855,2.984807543941117,0.0121564995259998,0.21507106266751,0.0288870786313579,0,0.0,0.7867676567220128,0.3790951182249601,1.6203311441396349,0.0103140606621745,63.171149182865946,0.1049643946342398,0.0736683872864058,-19.831357435906313,786351000,21640716000,-10210553000,31150946000,2248223500,2334488500,813328000,46.39213552431816,158.44589039027312,50.048867909658654,7.86771283267768,2.3036255411923707,7.292872251553179,0.1263779812091245,11.117984316305156,0.3036305454882061,-0.9454339242207846,0.3036305454882061,-0.0810033954669065,-0.1071286854504345,0.0851196065131167,0.0426996929246113,0.0815328115572859,0,0,0.0,0.0,2.0411840411840414,0.8535629904544024,0.1029946444731053,0,0.0940086473714017,0.0845043194856798,0.5156057488120049,0.1868613954528096,0.961211031733465,-0.4706362819570366,0.203473695164957,-0.1952063849363531,0,0.1433596063622632,0.4913612094306797,0.0142946979327097,0,0.0627033676621035,8.746185691240209e-05,0.1554643572054613,-2.425625920471281,0,0.1175638245197784,0.0940086473714017,-0.9454339242207846,-0.0885140242192429,-0.2232497899562419,-0.200094178482849,0.0504053656187732,-0.2935706968358988,0.1248961934374939,2.7099758805762586,0.7506871638872291,-0.6163875023614591,1.4054878048780488,2.0877872163796045,0.0507905663408425,-0.0569493003756289,-0.383185459405749,0,0,2.121404250322884,-0.0011362748660407,-1.548438245877522,0,0.6060262228946042,-0.3427844171260943,-0.1417277004413833,-0.8034984978006275,0.9908268972243456,-0.3452535742702445,0.3036305454882061,0.8647587949577333,0.0507905663408425,-0.0569493003756289,0.0286744599863013,2019-12-31,EOG,2019,FY,-0.0136879060772637,0.0854965966441897,-0.0562191981006478,-0.0431215356536932,0,0.146212020076399,0.0284978041579069,94.30579501915707,0.0302967507205789,0.053301789893234,-0.2445317728482118,-0.0346754012999973,-0.0555321801643525,-0.1723596696250413,-0.1608737888925255,0.3255907649727608,-0.1640488866064072,-0.1524476701550982,-0.0141138598322542,-0.1889931933452829,-0.2023608768971331,-0.2003395585738539,0.0018557058619493,0.0006495520330806
