fillingDate,revenuePerShare,netIncomePerShare,operatingCashFlowPerShare,freeCashFlowPerShare,cashPerShare,bookValuePerShare,tangibleBookValuePerShare,shareholdersEquityPerShare,interestDebtPerShare,marketCap,enterpriseValue,peRatio,priceToSalesRatio,pocfratio,pfcfRatio,pbRatio,ptbRatio,evToSales,enterpriseValueOverEBITDA,evToOperatingCashFlow,evToFreeCashFlow,earningsYield,freeCashFlowYield,debtToEquity,debtToAssets,netDebtToEBITDA,currentRatio,interestCoverage,incomeQuality,dividendYield,payoutRatio,salesGeneralAndAdministrativeToRevenue,researchAndDdevelopementToRevenue,intangiblesToTotalAssets,capexToOperatingCashFlow,capexToRevenue,capexToDepreciation,stockBasedCompensationToRevenue,grahamNumber,roic,returnOnTangibleAssets,grahamNetNet,workingCapital,tangibleAssetValue,netCurrentAssetValue,investedCapital,averageReceivables,averagePayables,averageInventory,daysSalesOutstanding,daysPayablesOutstanding,daysOfInventoryOnHand,receivablesTurnover,payablesTurnover,inventoryTurnover,roe,capexPerShare,growthCashAndCashEquivalents,growthShortTermInvestments,growthCashAndShortTermInvestments,growthNetReceivables,growthInventory,growthOtherCurrentAssets,growthTotalCurrentAssets,growthPropertyPlantEquipmentNet,growthGoodwill,growthIntangibleAssets,growthGoodwillAndIntangibleAssets,growthLongTermInvestments,growthTaxAssets,growthOtherNonCurrentAssets,growthTotalNonCurrentAssets,growthOtherAssets,growthTotalAssets,growthAccountPayables,growthShortTermDebt,growthTaxPayables,growthDeferredRevenue,growthOtherCurrentLiabilities,growthTotalCurrentLiabilities,growthLongTermDebt,growthDeferredRevenueNonCurrent,growthDeferrredTaxLiabilitiesNonCurrent,growthOtherNonCurrentLiabilities,growthTotalNonCurrentLiabilities,growthOtherLiabilities,growthTotalLiabilities,growthCommonStock,growthRetainedEarnings,growthAccumulatedOtherComprehensiveIncomeLoss,growthOthertotalStockholdersEquity,growthTotalStockholdersEquity,growthTotalLiabilitiesAndStockholdersEquity,growthTotalInvestments,growthTotalDebt,growthNetDebt,growthNetIncome,growthDepreciationAndAmortization,growthDeferredIncomeTax,growthStockBasedCompensation,growthChangeInWorkingCapital,growthAccountsReceivables,growthAccountsPayables,growthOtherWorkingCapital,growthOtherNonCashItems,growthNetCashProvidedByOperatingActivites,growthInvestmentsInPropertyPlantAndEquipment,growthAcquisitionsNet,growthPurchasesOfInvestments,growthSalesMaturitiesOfInvestments,growthOtherInvestingActivites,growthNetCashUsedForInvestingActivites,growthDebtRepayment,growthCommonStockIssued,growthCommonStockRepurchased,growthDividendsPaid,growthOtherFinancingActivites,growthNetCashUsedProvidedByFinancingActivities,growthEffectOfForexChangesOnCash,growthNetChangeInCash,growthCashAtEndOfPeriod,growthCashAtBeginningOfPeriod,growthOperatingCashFlow,growthCapitalExpenditure,growthFreeCashFlow,date,symbol,calendarYear,period,growthRevenue,growthCostOfRevenue,growthGrossProfit,growthGrossProfitRatio,growthResearchAndDevelopmentExpenses,growthGeneralAndAdministrativeExpenses,growthSellingAndMarketingExpenses,growthOtherExpenses,growthOperatingExpenses,growthCostAndExpenses,growthInterestExpense,growthEBITDA,growthEBITDARatio,growthOperatingIncome,growthOperatingIncomeRatio,growthTotalOtherIncomeExpensesNet,growthIncomeBeforeTax,growthIncomeBeforeTaxRatio,growthIncomeTaxExpense,growthNetIncomeRatio,growthEPS,growthEPSDiluted,growthWeightedAverageShsOut,growthWeightedAverageShsOutDil
2024-02-15,77.3135593220339,5.38135593220339,10.216101694915254,7.889830508474576,6.733050847457627,33.99576271186441,-2.5466101694915255,33.186440677966104,26.67372881355932,35293800000.0,40649800000,27.7903937007874,1.9343308122328184,14.638656159270012,18.954779806659506,4.506358529111338,4.506358529111338,2.227874602652636,15.628527489427144,16.860141020323518,21.8312567132116,0.035983657186248,0.05275714148094,0.7722165474974464,0.2793920635653901,2.05920799692426,1.470320538187574,11.271255060728745,1.8984251968503936,0.0169434858247057,0.4708661417322834,0.2434506193138222,0.0237312287624684,0.398392386935834,0.2277063459145582,0.0300887865833607,0.9089403973509934,0.0032335854433848,63.389518942404806,0.1502027842441588,0.097519772709821,-36.06885593220339,2377000000,-601000000,-6193000000,15477000000,3291000000,2575000000,2199500000,65.59437684972049,89.10926254790166,72.56332367510981,5.564501372369625,4.096094946401225,5.030089327691584,0.1621552604698672,2.3262711864406778,0.3776160145586897,0.3636363636363636,0.376949740034662,-0.0072661217075386,-0.0638204225352112,-0.018018018018018,0.0359682141363446,0.0767380322347847,0.0200723922342875,0.004142502071251,0.0155440414507772,0.0614754098360655,1.873684210526316,0.0017152658662092,0.0475278166678947,0,0.0435306594677979,0.0291568163908589,-0.3830645161290322,2.4594594594594597,0.0,0.3126293995859213,0.0705359034102944,-0.1160714285714285,0.0,0.0139720558882235,0.0065437239738251,-0.0798797509126046,0.0,-0.0292839330245814,0,0.0322642596504705,0.2032028469750889,0,0.1881067961165048,0.0435306594677979,0.1170568561872909,-0.1001964636542239,-0.1805385556915544,0.2026515151515151,0.0902527075812274,-0.1656050955414012,0.6857142857142857,1.564748201438849,1.037313432835821,17.25,0.4528301886792453,10.193548387096774,1.5036344755970923,-0.0598455598455598,0.3596491228070175,0.0,0.0,-0.6140350877192983,-0.2060737527114967,-0.1470985155195681,0.0,0.5473684210526316,-0.0491228070175438,0.3333333333333333,-2.7897310513447433,109.0,3.4148936170212765,0.3776160145586897,0.0935323383084577,1.5036344755970923,-0.0598455598455598,3.1842696629213485,2023-12-31,PPG,2023,FY,0.0336505778382053,-0.0357786589762076,0.1511592434411226,0.1136831616117237,-0.0334821428571428,0.1561686621551275,-0.9642857142857144,-1.0,-0.0167217175887696,-0.0430746379502413,0.4790419161676646,0.0928571428571428,0.0572790904896894,0.6167247386759582,0.5640921353131547,-2.257861635220126,0.2657494569152788,0.2245428821908753,0.3507692307692308,0.1975195382090909,0.2367816091954023,0.2384259259259257,-0.0004235493434985,-0.0004214075010535
2023-02-16,74.76493011435832,4.34561626429479,4.0787801778907244,1.8847945785684033,4.887759423972893,28.415925455315545,-7.551884794578568,27.92037272342228,30.32189750105887,29687214000.0,36223214000,28.934906432748537,1.6818045547246772,30.82784423676012,66.7128404494382,4.503521541262136,4.503521541262136,2.0520742125538183,15.21983781512605,37.61496780893042,81.40048089887641,0.0345603329433337,0.0149896180894576,1.0606796116504855,0.3370613189355958,2.746218487394958,1.5193814869730988,10.311377245508982,0.9119318181818182,0.0192001849685187,0.5555555555555556,0.2176523906639474,0.0253795603897575,0.4093713844967219,0.5379023883696781,0.0293451167006571,0.9350180505415162,0.0019827781554498,52.24894813076835,0.0969339061416549,0.083741429970617,-39.253494282083864,2452000000,-1783000000,-6862000000,15101000000,3227500000,3136500000,2221500000,68.29792658055744,83.48684210526316,74.73684210526316,5.3442325158946415,4.371946414499606,4.883802816901408,0.1556432038834951,2.193985599322321,0.0935323383084577,-0.1791044776119403,0.0764925373134328,0.0479060913705583,0.0465223399355135,0.1715039577836411,0.0642433234421365,-0.0406185091160858,-0.0272087067861715,-0.1325907294286741,-0.0596833130328867,-0.1094890510948905,-0.5177664974619289,-0.2142857142857142,-0.069012828428346,-1,-0.0284295817526111,-0.3204819277108434,1.4676616915422886,0.0277777777777777,-1.0,3.496124031007752,-0.0050579557428872,-0.0105102817974105,-1.0,-0.2244582043343653,-0.2571807335395493,-0.0845291920581875,-1.0,-0.0605756358768406,0,0.0223836638523463,-0.0218181818181818,0,0.0486796054724785,-0.0284295817526111,-0.1231671554252199,38.765625,9.039360393603936,-0.2671755725190839,-0.0124777183600713,-5.485714285714286,-0.3859649122807017,-1.9574468085106385,-1.8210526315789477,-1.0271186440677966,0.5137614678899083,1.0901162790697674,-0.3834827144686299,-0.3962264150943396,0.9466541881141788,0.0,0.0,0.6442307692307693,0.8082362728785357,-0.1632653061224489,-1.0,0.0952380952380952,-0.0634328358208955,-3.0,-5.397849462365591,1.0138888888888888,1.1144945188794153,0.0935323383084577,-0.4496166484118291,-0.3834827144686299,-0.3962264150943396,-0.6263643996641478,2022-12-31,PPG,2022,FY,0.050589215569575,0.0787478125607622,0.0061387354205033,-0.0423100480955471,0.020501138952164,0.0031331592689295,0.037037037037037,4.4,0.0028985507246376,0.0850120870265914,0.3801652892561983,-0.0735694822888283,-0.1112611130332962,-0.0548847420417124,-0.1003950512613849,0.3276955602536998,-0.2391184573002754,-0.2757573262200337,-0.1310160427807486,-0.3213378495941729,-0.2821782178217822,-0.2811980033277869,-0.0063131313131313,-0.0087719298245614
2022-02-17,70.71548821548822,6.056397306397306,6.574074074074074,5.012626262626263,4.511784511784512,26.982323232323232,-11.026936026936028,26.456228956228955,28.985690235690235,40971744000.0,40158744000,28.472372480889508,2.4385039876205212,26.23030985915493,34.40112846347607,6.517935730194083,6.517935730194083,2.3901168908463277,15.632052938886726,25.709823303457107,33.71850881612091,0.0351217658686923,0.029068813863525,1.0763601654470252,0.316893822303405,-0.3164655507979759,1.4204425711275026,15.057851239669422,1.083969465648855,0.0130821865918131,0.3724808895066018,0.2279490536840852,0.0261278419235805,0.4229778464708913,0.2375160051216389,0.0220807046780145,0.661319073083779,0.0033924532793715,60.04300342445027,0.1108303383203781,0.116801948051948,-43.84890572390572,1995000000,-2620000000,-8200000000,15359000000,2939000000,2997000000,1953000000,68.47280085704082,132.53694341823837,77.03820727202022,5.3305837563451774,2.753949129852744,4.7379087977890375,0.2289214126630607,1.5614478114478114,-0.4496166484118291,-0.3020833333333333,-0.4422476586888658,0.1562729273661041,0.2512968299711816,-0.0867469879518072,-0.0085319211532803,0.0903371917463512,0.2246177969423755,0.1837515950659294,0.2117268214141956,0.0262172284644194,-0.4802110817941952,0.0832116788321167,0.1425772064586926,0,0.0917876866434853,0.6533864541832669,-0.7348284960422163,-0.217391304347826,1.4272727272727272,-1.3573407202216066,-0.0147425249169435,0.271793878341728,-0.102502979737783,0.4850574712643678,-0.1385610963075751,0.1418630751964085,0.4,0.0872571137471799,0,0.0463814268837639,-0.058099268949596,0,0.1049393566531903,0.0917876866434853,-0.0606060606060606,0.0666666666666666,0.5060753341433779,0.3454715219421101,0.1021611001964636,1.74468085106383,0.2954545454545454,-1.5513196480938416,-1.7421875,1.3228346456692914,-3.36,-2.6226415094339623,-0.2666666666666666,-0.2203947368421052,-0.8280581693755347,1.0,-1.0,10.555555555555555,-0.6613683483068418,0.7371027651671481,-0.1296296296296296,0.0,-0.0806451612903225,1.1935483870967742,2.5762711864406778,-13.0,-2.3459016393442624,-0.4496166484118291,0.5016447368421053,-0.2666666666666666,-0.2203947368421052,-0.3477546549835706,2021-12-31,PPG,2021,FY,0.2145438774034986,0.3226179760833226,0.075780089153046,-0.1142517703109657,0.158311345646438,0.130126881085866,0.0896860986547085,0.8809523809523809,0.1292962356792144,0.205146880310755,-0.1231884057971014,0.2380722891566265,-0.0778865244110408,0.0184460592509782,-0.1614579942575987,-0.1129411764705882,0.3325991189427312,0.0972012979022234,0.2852233676975945,0.1187978538258986,0.3557046979865771,0.3505617977528089,0.0033783783783783,0.0063051702395964
2021-02-18,58.420608108108105,4.472128378378378,8.994932432432432,7.711148648648648,8.116554054054054,24.55658783783784,-6.91722972972973,24.02449324324324,25.58277027027027,34151296000.0,32505296000,32.248627006610015,2.4686494144860487,16.033472300469484,18.702790799561885,6.003040253120057,6.003040253120057,2.349667196761602,15.665202891566263,15.26070234741784,17.801366922234394,0.0310090721008069,0.0534679562380297,1.040604675689928,0.3027203927183473,-0.7932530120481928,1.4115448504983388,12.96376811594203,1.988795518207283,0.0145236069518415,0.4683663833805477,0.2449761457279167,0.0273962700592742,0.3811106565759869,0.1427230046948356,0.021974844585803,0.5972495088408645,0.003180569611103,49.16720355286157,0.121179147425873,0.0874989671982153,-37.614020270270274,1982000000,-1638000000,-6943000000,13409000000,2741000000,2584500000,1722500000,71.92352175798756,106.02224508165102,81.42921435000642,5.07483492296405,3.4426737494466577,4.482420749279539,0.1861487080330462,1.2837837837837838,0.5016447368421053,0.6842105263157895,0.5098193244304792,-0.0108853410740203,0.0146198830409356,-0.037122969837587,0.1017828200972447,0.0555112881806108,0.1413870246085011,0.1032379164711403,0.1290713528253295,0.0348837209302325,0.7227272727272728,1.0631685724824789,0.1057375628358467,1,0.3659286163302367,-0.2237113402061855,0.109809663250366,0.0,-0.6064400715563506,5.2637795275590555,0.1008,0.1392628558817038,2.231107850330154,-0.0376106194690265,0.1298924731182795,0.9629874421678783,0.0,0.5415077406327126,0,0.0297789061673542,-0.1059574468085106,0,0.0766464799394398,0.3659286163302367,0.1523809523809524,-0.9655304481041748,-1.4108836744882676,-0.1560283687943262,-0.0039138943248532,-8.4,0.1282051282051282,4.412698412698413,22.333333333333332,3.015873015873016,-0.9230769230769232,0.0443349753694581,0.0240384615384615,0.2639225181598063,-0.8180404354587869,0.375,-0.2142857142857142,-0.6666666666666666,-0.4340931615460852,-2.671212121212122,-0.1147540983606557,1.0,-0.0598290598290598,-1.5166666666666666,0.9221635883905012,5.0,0.9426751592356688,0.5016447368421053,0.3481152993348115,0.0240384615384615,0.2639225181598063,0.0953809238152369,2020-12-31,PPG,2020,FY,-0.0866235309652713,-0.1012365653530567,-0.0671492376405359,0.0213212119812125,-0.1226851851851851,-0.0596559378468368,-0.2120141342756183,0.4473684210526316,-0.0593798108643061,-0.0768023907358984,0.0454545454545454,-0.1361365528726061,0.0047794821427718,-0.018111964873765,0.0750091210384086,-0.4505119453924914,-0.1800120409391932,-0.1022453644996785,-0.2576530612244898,-0.0672290485726213,-0.1485714285714286,-0.1475095785440612,-0.0004221190375685,-0.0012594458438287
2020-02-20,63.9341494301393,5.246939636977627,8.780075981426762,7.036724356268468,5.373575348248206,22.807091599831153,-5.05698607007176,22.304769945124526,22.566483748417053,31623781000.000004,35629781000,25.4414971842317,2.0879295523570582,15.203740865384615,18.970474505098984,5.984818508705526,5.984818508705526,2.3524218275452267,14.833380932556205,17.129702403846153,21.373593881223755,0.0393058628884382,0.0527134943161919,0.9867524602573808,0.3641824404554026,1.6677768526228145,1.4102857142857144,13.803030303030305,1.6390858944050433,0.0147989894061054,0.3765084473049074,0.2379506140235045,0.0285223821471015,0.4610602779911992,0.1985576923076923,0.027267925524891,0.8082191780821918,0.0025749372771688,51.314862215265435,0.1325970291752484,0.1610938310005184,-19.91979738286197,1795000000,-1198000000,-2744000000,12161000000,2800500000,2487500000,1746500000,66.4162155024429,122.74933549058127,72.13105281405292,5.495645863570392,2.9735395189003437,5.060233918128655,0.2352384557153671,1.7433516251582946,0.3481152993348115,-0.0655737704918032,0.3219106957424714,-0.0312829525483304,-0.0409422321929332,0.1648648648648648,0.0350612313370239,0.3422459893048128,0.0982800982800982,0.0806288032454361,0.0925190334326382,0.0278884462151394,-0.0393013100436681,-15.916093535075651,0.14760294410185,0,-0.1060256009990633,0.4092009685230024,0.0491551459293394,-0.5892857142857143,1.2226640159045723,-1.3350923482849604,0.0025206232813932,0.0380297823596792,-2.0698587127158556,0.0536130536130536,0.1034646416706217,-0.3431259044862518,-1.0,-0.2099618895683772,0,0.0427444707958744,-0.0217391304347826,0,0.1412526997840172,-0.1060256009990633,0.0096153846153846,0.0410685805422647,-0.0262518230432668,-0.0529850746268656,0.028169014084507,-1.1111111111111112,0.054054054054054,1.1551724137931034,0.9130434782608696,0.1126760563380281,0.9171974522292994,5.413043478260869,0.4178595773687798,-0.0048661800486618,-0.701058201058201,0.7142857142857143,0.217391304347826,-0.1,-0.3206806282722513,-109.0,3.066666666666667,0.8111563044741429,-0.0331125827814569,119.0,0.370954356846473,1.03125,1.5880149812734083,0.3481152993348115,-0.3718662952646239,0.4178595773687798,-0.0048661800486618,0.5785984848484849,2019-12-31,PPG,2019,FY,-0.0148302328606738,-0.0386623708476835,0.0188294366860191,0.034166364633786,-0.0204081632653061,0.0086761824797089,0.0107142857142857,0.3391304347826087,0.007980492130348,-0.0147946415427646,0.1186440677966101,0.0067057837384744,0.0603760021641308,0.0774689532820816,0.0936886105144903,-0.6368715083798883,-0.0189013585351447,-0.0041324104229417,0.1104815864022662,-0.0591264171735426,-0.0454545454545454,-0.0439560439560439,-0.02870028700287,-0.0293398533007334
